1.384402811760082841e+00
1.210846376605331898e+00
1.230166202411055565e+00
1.367980959825217724e+00
9.654845888726413250e-01
4.461032717954367399e-01
1.245944060152396560e+00
1.487119885627180338e+00
1.078505569836124778e+00
4.657450946979224682e-01
3.836358350235968828e-01
7.313926995266228914e-01
5.552602875977754593e-01
2.155533505138009787e-01
4.300034169573336840e-01
9.004411753267049789e-01
1.035679955966770649e+00
1.117789215641096234e+00
1.385368803050369024e+00
1.258179949829354882e+00
8.003000782337039709e-01
8.360417559742927551e-01
4.145475563127547503e-01
5.475323572754859924e-01
7.838782262988388538e-01
4.023116666357964277e-01
2.017074753530323505e-01
2.426011066418141127e-01
5.517183195333927870e-01
5.868160030804574490e-01
5.980859014671295881e-01
9.033391491975635290e-01
7.352566646877676249e-01
5.658861917909234762e-01
2.194173156749457121e-01
8.453796717803925276e-01
8.135019592009484768e-01
2.384151443839073181e-01
3.253543605096638203e-01
4.068196259904652834e-01
2.313312082551419735e-01
4.196995098609477282e-01
4.290374256670475006e-01
5.871380001772195101e-01
6.457414717879146338e-01
6.438094892073422670e-01
1.649998063221573830e-01
7.120728737208992243e-01
1.384724808856844902e+00
1.463614097563549876e+00
9.989722869358956814e-01
5.607342382427304983e-01
9.561466730665415525e-01
8.943232304882258177e-01
2.219932924490422010e-01
4.625251237303018570e-01
6.042038463056087494e-01
1.448158236918970942e+00
1.192814539186656475e+00
6.595873469486832619e-01
1.749817163217812777e-01
1.044643521308898926e-01
3.610960382502526045e-01
4.177675272803753614e-01
1.138022679369896650e-01
2.931546508334577084e-01
4.332233879249542952e-01
2.899346798658370972e-01
4.522212166339159012e-01
6.586213556583970785e-01
1.640338150318711996e-01
7.301047111395746469e-01
1.515133633045479655e+00
1.965607571415603161e+00
2.179091646568849683e+00
1.656812355620786548e+00
1.076251590158790350e+00
1.032459984999150038e+00
7.758282988797873259e-01
3.759079047013074160e-01
1.069489651126787066e+00
1.416602521436288953e+00
7.687443627510219812e-01
1.711177511606365442e-01
9.030171521008014679e-01
1.001226266613230109e+00
8.357197588775306940e-01
3.627060237340629101e-01
2.554809905122965574e-01
5.385164385661482811e-01
1.466459718067198992e-01
4.940808392129838467e-01
5.749021105002611876e-01
6.138637592084705830e-01
6.718232366256415844e-01
2.860707147046923637e-01
1.023122069193050265e+00
1.790441150777041912e+00
1.148700936930254102e+00
7.494245369452983141e-01
6.785851756576448679e-01
5.166206359863281250e-01
4.406293211504817009e-01
5.188746156636625528e-01
5.323984937276691198e-01
4.638131121173501015e-01
7.072429172694683075e-01
1.006700217258185148e+00
8.286358227487653494e-01
7.075649143662303686e-01
7.230207750108093023e-01
3.572320730891078711e-01
1.134802708402276039e-01
2.812407582532614470e-01
3.086105114780366421e-01
3.604520440567284822e-01
3.498261398635804653e-01
2.174853330943733454e-01
4.242074692156165838e-01
4.760490017943084240e-01
7.033789521083235741e-01
9.867363972589373589e-01
1.443328280467540026e+00
1.441718294983729720e+00
9.944643275812268257e-01
8.205858953297138214e-01
5.665301859844475985e-01
3.327602937351912260e-01
6.215916895307600498e-01
8.418377037160098553e-01
6.286756256595253944e-01
1.885055943857878447e-01
5.182306214701384306e-01
6.824491408187896013e-01
4.618811295367777348e-01
1.746597192250192165e-01
1.241061750333756208e-01
1.286141343880444765e-01
1.588818614836782217e-01
2.210273011587560177e-01
2.896126827690750360e-01
1.769136989023536444e-01
1.604918469674885273e-01
1.128362766467034817e-01
1.897935827728360891e-01
1.086503143887966871e-01
3.794498727656900883e-01
3.746199163142591715e-01
1.373080560006201267e-01
1.083283172920346260e-01
6.071018201764672995e-01
6.438094892073422670e-01
2.091134085785597563e-01
3.858898147009313107e-01
6.505714282393455505e-01
1.138397029833868146e+00
1.066913674352690578e+00
6.270656401757150888e-01
1.893802218837663531e+00
2.417691495269536972e+00
1.585650997236371040e+00
4.609151382464915514e-01
2.873587030917406082e-01
7.333246821071952581e-01
1.108773296931758523e+00
9.999382782261818647e-01
1.023766063386574388e+00
8.775793814565986395e-01
1.707957540638744831e-01
6.145077534019947052e-01
6.618413266260176897e-01
3.681799743790179491e-01
1.051083463244140148e-01
1.859296176116913557e-01
1.414940182585269213e-01
4.992327927611768246e-01
1.358965041115880013e+00
1.520929580787196755e+00
1.077539578545838594e+00
2.925106566399335861e-01
1.215998330153524876e+00
1.954981667222455144e+00
1.205372425960376859e+00
1.965555218048393726e-01
3.949057334102690220e-01
7.310707024298608303e-01
1.045983863063156605e+00
1.200864466605708003e+00
1.321613377891480923e+00
7.925721479114145041e-01
3.569100759923458099e-01
9.030171521008014679e-01
1.033747973386198282e+00
4.944028363097459078e-01
2.000974898692220449e-01
6.650612975936383009e-01
6.640953063033521175e-01
3.565880788955837488e-01
1.241061750333756208e-01
5.861720088869333267e-01
1.461038120789453387e+00
1.499033778207376599e+00
6.383355385623872280e-01
3.797718698624521494e-01
5.617002295330166817e-01
2.149093563202768564e-01
2.690048685763031244e-01
2.522610195446759462e-01
3.005605840589851141e-01
8.044860404916107655e-01
7.555424817837774754e-01
8.382957356516271830e-01
9.297429111320525408e-01
4.679990743752568960e-01
1.250721663236618042e-01
4.512552253436297178e-01
1.066591677255928516e+00
1.751157504972070456e+00
2.000383257865905762e+00
1.843892668839544058e+00
1.083013529190793633e+00
3.636720150243490934e-01
1.875396030955016613e-01
3.569100759923458099e-01
4.390193356666713953e-01
7.935381392017006874e-01
8.824093379080295563e-01
5.510743253398686647e-01
6.038818492088466883e-01
8.643775004893541336e-01
1.116823224350810051e+00
6.801951611414551735e-01
2.348731763195246458e-01
4.821669466327875853e-01
1.469679689034819603e-01
4.164795388933271170e-01
7.252747546881437302e-01
8.035200492013245821e-01
5.977639043703675270e-01
2.084694143850356340e-01
6.644173034001141787e-01
7.056329317856580019e-01
3.098984998650848866e-01
7.629484150093048811e-01
1.395350713049992919e+00
1.407264605630189180e+00
1.775629284325987101e+00
1.924391943030059338e+00
1.494203821755945683e+00
8.012660695239901543e-01
1.282921372912824154e-01
1.131582737434655428e-01
1.334440908394753933e-01
3.324382966384291649e-01
4.918268595356494188e-01
5.671741801779717207e-01
3.076445201877504587e-01
4.905388711486011744e-01
7.858102088794112206e-01
2.071814259979873896e-01
6.698912540450692177e-01
8.102819882333278656e-01
8.473116543609648943e-01
7.323586908169090748e-01
3.949057334102690220e-01
1.865736118052154779e-01
1.125142795499414206e-01
2.867147088982164860e-01
3.916857624426484108e-01
2.963746218010783195e-01
8.534295991994440556e-01
8.679194685537368059e-01
4.657450946979224682e-01
1.878616001922637224e-01
4.789469756651669741e-01
8.067400201689451933e-01
4.589831556659191847e-01
4.148695534095168114e-01
1.436566341435536742e+00
2.033870955929160118e+00
1.427550422726199031e+00
8.894932740367949009e-01
8.856293088756501675e-01
1.010242185322567821e+00
1.127127131447196007e+00
8.775793814565986395e-01
2.419571124482899904e-01
1.801336698699742556e-01
1.682197772897779942e-01
3.185924214776605368e-01
4.061756317969411612e-01
2.828507437370717525e-01
8.940012333914637566e-01
1.327087328536435962e+00
1.210846376605331898e+00
1.157394858542829752e+00
8.096379940398037434e-01
3.417762124445289373e-01
1.339967212406918406e+00
1.815234927227720618e+00
1.172850719187408686e+00
2.136213679332286119e-01
8.894932740367949009e-01
1.322901366278529167e+00
1.414670538855716586e+00
1.087843485642224550e+00
6.312516024336218834e-01
2.110453911591321230e-01
1.701517598703503609e-01
1.244281721301376820e-01
1.270041489042341709e-01
2.950866334140300751e-01
8.205858953297138214e-01
1.114247247576713562e+00
4.586611585691571236e-01
7.301047111395746469e-01
1.147412948543205857e+00
9.612986266147345304e-01
7.320366937201470137e-01
6.508934253361076117e-01
1.707957540638744831e-01
8.904592653270810843e-01
1.261077923700213432e+00
5.797320669516921043e-01
4.280714343767613173e-01
9.722465279046446085e-01
1.277821772731840611e+00
1.040831909514963627e+00
2.532270108349621296e-01
5.208065982442349195e-01
7.974021043628454208e-01
4.126155737321823835e-01
2.735128279309719801e-01
3.189144185744225979e-01
2.564469818025827408e-01
1.505099369678646326e-01
1.353760734200477600e-01
1.324780995491892099e-01
1.212082011625170708e-01
1.022103724535554647e-01
1.453579834196716547e-01
1.253941634204238653e-01
2.429231037385761738e-01
2.445330892223864794e-01
2.306872140616178513e-01
2.017074753530323505e-01
1.315121082589030266e-01
3.340482821222394705e-01
4.451372805051505566e-01
5.765120959840714931e-01
5.423804037272930145e-01
1.482559572905302048e-01
4.045656463131308556e-01
3.446741863153874874e-01
1.695077656768262386e-01
2.834947379305958748e-01
1.791676785796880722e-01
1.962335247080773115e-01
2.216712953522801399e-01
1.183102272916585207e-01
4.364433588925749063e-01
8.128579650074243546e-01
3.936177450232207775e-01
3.855678176041692495e-01
9.725685250014066696e-01
1.124873151769861579e+00
2.957306276075541973e-01
7.236647692043334246e-01
1.056609767256304622e+00
1.064659694675356150e+00
1.235962150152772665e+00
1.130025105318054557e+00
8.363637530710548162e-01
5.926119508221745491e-01
8.624455179087817669e-01
1.291345650795847178e+00
1.470698033692315221e+00
1.237250138539820910e+00
5.153326475992798805e-01
2.535490079317241907e-01
8.566495701670646667e-01
1.249808025313541293e+00
1.413382550468668342e+00
1.075607595965266228e+00
4.902168740518391132e-01
6.573333672713488340e-01
6.476734543684870005e-01
3.140844621229916811e-01
9.996162811294198036e-01
1.344797168858349323e+00
1.006700217258185148e+00
3.968377159908413887e-01
3.646380063146352768e-01
3.092545056715607643e-01
6.157957417890429497e-01
6.116097795311361551e-01
4.187335185706615448e-01
8.218738837167620659e-01
9.857704059686511755e-01
9.999382782261818647e-01
7.713203395251184702e-01
1.730497337412089109e-01
5.645982034038752317e-01
5.298225169535726309e-01
5.053507375996559858e-01
5.581582614686340094e-01
3.887877885717898607e-01
3.050685434136539698e-01
8.508536224253475666e-01
1.122297174995765090e+00
1.079793558223173022e+00
8.083500056527554989e-01
3.990916956681758165e-01
1.128362766467034817e-01
1.534079108387231827e-01
4.367653559893369675e-01
6.077458143699914217e-01
5.774780872743576765e-01
3.643160092178732157e-01
3.363022617995738983e-01
5.040627492126077414e-01
6.170837301760911942e-01
2.818847524467855692e-01
1.405280269682407379e-01
1.498659427743405104e-01
2.110453911591321230e-01
9.870583943556994200e-01
1.515133633045479655e+00
1.758241441100835800e+00
1.509337685303762555e+00
6.264216459821909666e-01
2.880026972852647305e-01
4.522212166339159012e-01
9.171850243583321571e-01
1.120687189511954784e+00
5.868160030804574490e-01
1.724057395476847887e-01
2.229592837393283844e-01
3.044245492201298475e-01
1.212082011625170708e-01
1.360200676135718822e-01
1.022103724535554647e-01
1.205642069689929485e-01
2.480750572867691517e-01
3.627060237340629101e-01
2.013854782562702894e-01
3.208464011549949646e-01
2.284332343842834234e-01
5.823080437257885933e-01
5.356184646952897310e-01
5.076047172769904137e-01
9.384368327446281910e-01
1.008954196935519576e+00
1.161258823703974485e+00
1.738599618198350072e+00
2.135622038505971432e+00
1.268805854022502899e+00
2.657848976086825132e-01
7.642364033963531256e-01
1.077539578545838594e+00
1.102333354996517301e+00
3.569100759923458099e-01
3.031365608330816031e-01
5.852060175966471434e-01
6.715012395288795233e-01
2.010634811595082283e-01
5.282125314697623253e-01
1.923695595469325781e-01
3.569100759923458099e-01
8.428036950062960386e-01
1.529945499496534467e+00
1.074319607578217983e+00
3.395222327671945095e-01
6.872790972702205181e-01
1.134533064672723413e+00
6.022718637250363827e-01
1.959115276113152504e-01
1.856076205149292946e-01
2.007414840627461672e-01
1.501879398711025715e-01
1.762697047088295221e-01
1.943015421275049448e-01
4.187335185706615448e-01
1.456799805164337158e-01
7.780822785571217537e-01
1.618172704009339213e+00
1.817166909808292985e+00
1.710585870780050755e+00
1.271703827893361449e+00
6.750432075932621956e-01
2.880026972852647305e-01
1.292581285815685987e-01
1.308681140653789043e-01
2.851047234144061804e-01
5.887479856610298157e-01
5.864940059836953878e-01
5.604122411459684372e-01
5.877819943707436323e-01
6.380135414656251669e-01
5.333644850179553032e-01
1.456799805164337158e-01
6.814831495285034180e-01
7.449165775906294584e-01
7.175468243658542633e-01
2.551589934155344963e-01
7.117508766241371632e-01
1.112637262092903256e+00
9.332848791964352131e-01
7.658463888801634312e-01
6.119317766278982162e-01
4.950468305032700300e-01
1.582378672901540995e-01
3.910417682491242886e-01
5.723261337261646986e-01
7.272067372687160969e-01
7.548984875902533531e-01
7.072429172694683075e-01
7.964361130725592375e-01
7.375106443651020527e-01
6.682812685612589121e-01
2.834947379305958748e-01
1.315121082589030266e-01
3.263203517999500036e-01
6.309296053368598223e-01
8.296018140390515327e-01
3.276083401869982481e-01
4.396633298601955175e-01
5.497863369528204203e-01
4.696090598590672016e-01
4.464252688921988010e-01
2.216712953522801399e-01
2.915446653496474028e-01
3.395222327671945095e-01
3.672139830887317657e-01
4.979448043741285801e-01
7.040229463018476963e-01
9.931763391941785812e-01
1.085589505964890122e+00
9.857704059686511755e-01
9.384368327446281910e-01
9.513167166151106358e-01
2.274672430939972401e-01
9.509947195183485746e-01
1.251096013700589538e+00
1.197966492734849453e+00
3.369462559930980206e-01
4.316134024411439896e-01
7.748623075895011425e-01
1.982673417543992400e+00
1.799457069486379623e+00
3.694679627660661936e-01
1.073353616287931800e+00
1.555061273043975234e+00
6.959730188827961683e-01
6.544353934004902840e-01
7.336466792039573193e-01
5.356184646952897310e-01
1.337069238536059856e+00
1.359287038212642074e+00
6.863131059799343348e-01
3.041025521233677864e-01
1.379520501941442490e-01
2.950866334140300751e-01
8.128579650074243546e-01
5.401264240499585867e-01
2.100793998688459396e-01
3.324382966384291649e-01
4.757270046975463629e-01
5.150106505025178194e-01
5.494643398560583591e-01
5.536503021139651537e-01
2.622429295442998409e-01
2.310092111583799124e-01
1.295801256783306599e-01
3.008825811557471752e-01
1.782016872894018888e-01
9.899040148593485355e-02
4.486792485695332289e-01
8.801553582306951284e-01
9.870583943556994200e-01
6.850251175928860903e-01
4.763709988910704851e-01
4.882848914712667465e-01
8.943232304882258177e-01
5.143666563089936972e-01
1.936575479339808226e-01
5.588022556621581316e-01
1.328053319826722145e+00
1.232098184991627932e+00
6.225576808210462332e-01
4.032776579260826111e-01
1.121922824531793594e-01
1.176662330981343985e-01
5.687841656617820263e-01
7.729303250089287758e-01
3.301843169610947371e-01
1.730497337412089109e-01
5.826300408225506544e-01
1.067235671449452639e+00
7.545764904934912920e-01
1.981655072886496782e-01
5.993738898541778326e-01
5.942219363059848547e-01
1.701517598703503609e-01
5.546162934042513371e-01
2.896126827690750360e-01
3.231003808323293924e-01
4.889288856647908688e-01
5.359404617920517921e-01
5.913239624351263046e-01
1.511539311613887548e-01
2.921886595431715250e-01
7.722863308154046535e-01
9.204049953259527683e-01
7.394426269456744194e-01
8.283138256520032883e-01
6.438094892073422670e-01
7.330026850104331970e-01
1.300039572408422828e+00
1.578245064010843635e+00
1.442040292080491781e+00
8.759693959727883339e-01
4.686430685687810183e-01
3.240663721226155758e-01
2.754448105115443468e-01
5.388384356629103422e-01
8.447356775868684053e-01
1.731515682069584727e+00
2.210647362051531672e+00
2.120810172054916620e+00
1.786577185615897179e+00
1.158682846929877996e+00
2.400251298677176237e-01
8.795113640371710062e-01
1.237250138539820910e+00
1.272669819183647633e+00
8.936792362947016954e-01
7.864542030729353428e-01
2.886466914787888527e-01
3.482161543797701597e-01
5.778000843711197376e-01
3.253543605096638203e-01
1.221741924528032541e-01
2.284332343842834234e-01
6.441314863041043282e-01
1.065947683062404394e+00
1.221794277895241976e+00
1.187018591444939375e+00
9.252349517773836851e-01
2.667508888989686966e-01
9.705841890536248684e-02
2.757668076083064079e-01
3.768738959915935993e-01
3.813818553462624550e-01
6.582993585616350174e-01
3.594860527664422989e-01
1.299021227750927210e-01
3.546560963150113821e-01
5.713601424358785152e-01
2.203833069652318954e-01
5.475323572754859924e-01
2.757668076083064079e-01
6.953290246892720461e-01
1.000260275322943926e+00
8.376517414581030607e-01
3.932957479264587164e-01
2.577349701896309853e-01
2.091134085785597563e-01
2.190953185781836510e-01
3.501481369603425264e-01
8.914252566173672676e-01
1.069811648223549128e+00
9.281329256482422352e-01
8.589035498443990946e-01
8.022320608142763376e-01
2.200613098684698343e-01
5.291785227600485086e-01
2.290772285778075457e-01
1.435600350145250559e+00
1.666150271426886320e+00
1.032137987902387977e+00
5.262805488891899586e-01
1.379520501941442490e-01
3.652820005081593990e-01
8.083500056527554989e-01
7.059549288824200630e-01
7.288167227525264025e-01
8.614795266184955835e-01
6.009838753379881382e-01
3.614180353470146656e-01
6.515374195296317339e-01
4.612371353432536125e-01
7.658463888801634312e-01
9.432667891960591078e-01
2.422791095450520515e-01
8.444136804901063442e-01
1.356711061438545585e+00
1.104909331770613790e+00
5.971199101768434048e-01
5.159766417928040028e-01
5.295005198568105698e-01
6.032378550153225660e-01
6.496054369490593672e-01
6.647393004968762398e-01
6.702132511418312788e-01
7.684223656542599201e-01
5.903579711448401213e-01
1.505099369678646326e-01
4.895728798583149910e-01
5.214505924377590418e-01
4.821669466327875853e-01
7.011249724309891462e-01
9.712805366143584251e-01
8.663094830699265003e-01
5.584802585653960705e-01
3.916857624426484108e-01
1.064981691772118211e+00
1.271059833699837327e+00
1.287803682731464505e+00
8.605135353282094002e-01
3.968377159908413887e-01
1.843196321278810501e-01
4.219534895382821560e-01
7.185128156561404467e-01
1.158038852736353874e+00
1.289091671118512750e+00
1.091063456609845161e+00
5.864940059836953878e-01
2.390591385774314404e-01
9.323188879061490297e-01
9.319968908093869686e-01
3.346922763157635927e-01
1.069489651126787066e+00
1.369912942405790091e+00
1.515133633045479655e+00
1.258823944022879004e+00
1.067879665642976761e+00
4.853869176004081964e-01
6.177277243696153164e-01
6.467074630782008171e-01
3.089325085747987032e-01
2.970186159946024418e-01
6.145077534019947052e-01
6.016278695315122604e-01
5.034187550190836191e-01
4.357993646990507841e-01
1.868956089019775391e-01
3.350142734125256538e-01
3.173044330906122923e-01
4.876408972777426243e-01
7.236647692043334246e-01
9.516387137118726969e-01
1.139685018220916390e+00
1.128415119834244251e+00
1.079149564029648900e+00
7.098188940435647964e-01
1.614578382577747107e-01
5.175866272766143084e-01
6.244896634016185999e-01
3.955497276037931442e-01
1.353760734200477600e-01
1.540519050322473049e-01
3.614180353470146656e-01
4.696090598590672016e-01
8.621235208120197058e-01
9.973623014520853758e-01
6.554013846907764673e-01
5.855280146934092045e-01
7.964361130725592375e-01
8.859513059724122286e-01
1.311953464988619089e+00
1.631374584976583719e+00
1.604648825945332646e+00
3.839578321203589439e-01
1.471342027885839343e+00
1.295853610150516033e+00
3.498261398635804653e-01
3.881437943782657385e-01
5.720041366294026375e-01
5.420584066305309534e-01
1.962335247080773115e-01
4.747610134072601795e-01
8.089939998462796211e-01
4.335453850217163563e-01
1.215301982592791319e-01
2.570909759961068630e-01
5.237045721150934696e-01
2.548369963187724352e-01
7.893521769437938929e-01
1.265585883054882288e+00
1.241114103700965643e+00
1.178646666929125786e+00
1.361863014986738563e+00
1.206338417250663042e+00
5.011647753417491913e-01
1.102602998726069927e-01
3.823478466365486383e-01
9.342508704867213964e-01
1.348661134019494057e+00
8.991531869396567345e-01
1.373080560006201267e-01
1.946235392242670059e-01
4.309694082476198673e-01
4.264614488929510117e-01
1.656438005156815052e-01
1.447139892261475325e-01
2.271452459972351789e-01
1.868956089019775391e-01
4.110055882483720779e-01
1.994534956756979227e-01
2.731908308342099190e-01
6.048478404991328716e-01
7.159368388820439577e-01
6.058138317894190550e-01
7.719643337186425924e-01
8.811213495209813118e-01
3.327602937351912260e-01
4.319353995379060507e-01
9.641966004855930805e-01
1.196034510154277086e+00
6.740772163029760122e-01
4.348333734087646008e-01
6.025938608217984438e-01
9.303869053255766630e-01
6.946850304957479239e-01
2.107233940623700619e-01
4.129375708289444447e-01
2.448550863191485405e-01
3.366242588963359594e-01
6.927530479151755571e-01
1.068201662739738822e+00
1.583397017559036613e+00
1.091063456609845161e+00
4.081076143775135279e-01
7.796922640409320593e-01
2.744788192212581635e-01
7.719643337186425924e-01
1.745361557230353355e+00
1.863856488838791847e+00
8.070620172657072544e-01
1.717617453541606665e-01
8.708174424245953560e-01
1.907004099804908037e+00
1.907326096901670098e+00
1.881888326257467270e+00
1.723787751747295260e+00
1.026986034354194999e+00
3.414542153477668762e-01
2.635309179313480854e-01
8.012660695239901543e-01
1.035357958870008588e+00
9.619426208082586527e-01
6.161177388858050108e-01
3.739759221207350492e-01
4.132595679257065058e-01
3.482161543797701597e-01
1.083283172920346260e-01
1.624238295480608940e-01
6.138637592084705830e-01
1.612376756267622113e+00
1.810404970776289701e+00
1.346729151438921690e+00
1.133245076285675168e+00
8.025540579110383987e-01
3.498261398635804653e-01
2.503290369641035795e-01
2.825287466403096914e-01
1.331220937427133322e-01
3.903977740556001663e-01
7.082089085597544909e-01
8.418377037160098553e-01
5.076047172769904137e-01
2.036394579336047173e-01
1.740157250314950943e-01
8.392617269419133663e-01
1.067557668546214700e+00
7.790482698474079370e-01
3.021705695427954197e-01
2.925106566399335861e-01
3.978037072811275721e-01
1.382740472909063101e-01
6.724672308191657066e-01
7.668123801704496145e-01
2.577349701896309853e-01
8.936792362947016954e-01
9.220149808097630739e-01
7.262407459784299135e-01
6.138637592084705830e-01
8.360417559742927551e-01
1.073997610481455922e+00
1.433346370467916131e+00
1.955625661415979266e+00
2.208393382374197245e+00
1.181544640799984336e+00
4.692870627623051405e-01
1.704789923038333654e+00
2.261200906243175268e+00
1.702535943360999227e+00
1.076895584352314472e+00
8.997971811331808567e-01
9.023731579072773457e-01
1.034713964676484466e+00
8.070620172657072544e-01
3.356582676060497761e-01
1.340880850329995155e-01
2.248912663199007511e-01
1.337660879362374544e-01
3.121524795424193144e-01
1.640338150318711996e-01
2.219932924490422010e-01
3.105424940586090088e-01
3.173044330906122923e-01
1.241061750333756208e-01
4.554411876015365124e-01
9.851264117751270533e-01
1.093317436287179589e+00
8.827313350047916174e-01
8.798333611339330673e-01
1.203440443379804492e+00
1.189916565315797925e+00
3.427422037348151207e-01
6.393015298526734114e-01
1.146768954349681735e+00
1.310665476601570845e+00
1.071421633707359433e+00
6.260996488854289055e-01
5.359404617920517921e-01
2.725468366406857967e-01
2.078254201915115118e-01
2.226372866425663233e-01
7.842002233956009150e-01
1.297463595634326339e+00
1.077217581449076533e+00
7.101408911403268576e-01
4.332233879249542952e-01
1.714397482573986053e-01
2.812407582532614470e-01
5.694281598553061485e-01
3.887877885717898607e-01
1.550178963225334883e-01
1.431040037423372269e-01
4.708970482461154461e-01
4.911828653421252966e-01
1.807776640634983778e-01
7.539324962999671698e-01
5.246705634053796530e-01
1.588818614836782217e-01
2.587009614799171686e-01
3.527241137344390154e-01
6.885670856572687626e-01
8.186539127491414547e-01
1.691857685800641775e-01
5.597682469524443150e-01
6.660272888839244843e-01
9.877023885492235422e-01
1.019902098225429654e+00
7.629484150093048811e-01
4.625251237303018570e-01
3.108644911553710699e-01
1.791676785796880722e-01
2.757668076083064079e-01
2.265012518037110567e-01
6.943630333989858627e-01
1.167698765639215708e+00
1.230166202411055565e+00
5.472103601787239313e-01
1.469679689034819603e-01
1.720837424509227276e-01
2.229592837393283844e-01
5.790880727581679821e-01
2.339071850292384624e-01
6.756872017867863178e-01
1.189272571122273803e+00
1.384080814663320780e+00
1.079471561126410961e+00
2.210273011587560177e-01
9.271669343579560518e-01
1.518031606916338205e+00
1.984283403027802706e+00
1.940813794964924455e+00
1.280075752409175038e+00
4.039216521196067333e-01
1.772356959991157055e-01
3.205244040582329035e-01
1.408500240650027990e-01
7.049889375921338797e-01
5.069607230834662914e-01
2.277892401907593012e-01
6.570113701745867729e-01
7.713203395251184702e-01
1.012818162096664310e+00
1.067235671449452639e+00
1.129059114027768373e+00
1.385690800147131085e+00
1.329663305310532451e+00
1.066913674352690578e+00
5.736141221132129431e-01
1.765917018055915833e-01
5.984078985638916492e-01
1.067557668546214700e+00
1.145802963059395552e+00
9.857704059686511755e-01
9.278109285514801741e-01
7.964361130725592375e-01
5.140446592122316360e-01
5.559042817912995815e-01
7.030569550115615129e-01
3.852458205074071884e-01
1.144462621305137873e-01
3.858898147009313107e-01
7.181908185593783855e-01
8.608355324249714613e-01
6.647393004968762398e-01
4.148695534095168114e-01
2.863927118014544249e-01
8.118919737171381712e-01
1.013462156290188432e+00
1.070133645320311189e+00
1.087521488545462489e+00
7.384766356553882360e-01
4.097175998613238335e-01
3.018485724460333586e-01
9.783644727431237698e-01
1.419822492403909564e+00
1.285227705957368016e+00
9.036611462943255901e-01
8.560055759735405445e-01
5.816640495322644711e-01
2.831727408338338137e-01
3.578760672826319933e-01
6.425215008202940226e-01
8.286358227487653494e-01
5.739361192099750042e-01
4.708970482461154461e-01
7.500685311388224363e-01
1.065947683062404394e+00
1.090097465319558978e+00
4.712190453428775072e-01
1.788456814829260111e-01
5.340084792114794254e-01
1.073997610481455922e+00
1.498389784013852477e+00
1.194102527573704720e+00
8.147899475879967213e-01
2.181293272878974676e-01
1.125142795499414206e-01
1.488999514840543270e-01
1.460019776131957769e-01
1.868956089019775391e-01
1.450359863229095936e-01
2.979846072848886251e-01
2.290772285778075457e-01
1.276481430977582932e-01
1.537299079354852438e-01
2.281112372875213623e-01
4.911828653421252966e-01
6.779411814641207457e-01
5.188746156636625528e-01
1.482559572905302048e-01
1.337660879362374544e-01
7.594064469449222088e-01
9.793304640334099531e-01
7.545764904934912920e-01
2.567689788993448019e-01
5.491423427592962980e-01
7.249527575913816690e-01
9.049491346813738346e-01
8.341097733937203884e-01
2.406691240612417459e-01
6.698912540450692177e-01
1.066913674352690578e+00
1.397604692727327347e+00
9.239469633903354406e-01
2.780207872856408358e-01
1.891495885793119669e-01
3.018485724460333586e-01
3.752639105077832937e-01
5.105026911478489637e-01
4.151915505062788725e-01
2.248912663199007511e-01
3.417762124445289373e-01
1.215301982592791319e-01
3.543340992182493210e-01
6.644173034001141787e-01
5.578362643718719482e-01
5.095366998575627804e-01
7.745403104927390814e-01
1.030849999515339732e+00
1.253993987571448088e+00
1.365726980147883296e+00
7.445945804938673973e-01
6.721452337224036455e-01
1.330951293697580695e+00
1.294565621763467789e+00
1.486153894336894155e+00
1.540893400786444545e+00
1.120043195318430662e+00
3.504701340571045876e-01
3.778398872818797827e-01
8.099599911365658045e-01
1.074963601771742105e+00
1.075929593062028289e+00
8.254158517811447382e-01
6.054918346926569939e-01
2.860707147046923637e-01
2.789867785759270191e-01
6.409115153364837170e-01
5.835960321128368378e-01
4.509332282468676567e-01
2.448550863191485405e-01
6.000178840477019548e-01
7.191568098496645689e-01
2.506510340608656406e-01
2.738348250277340412e-01
4.470692630857229233e-01
4.911828653421252966e-01
8.180099185556173325e-01
9.062371230684220791e-01
6.380135414656251669e-01
1.810996611602604389e-01
3.720439395401626825e-01
5.449563805013895035e-01
6.125757708214223385e-01
7.355786617845296860e-01
4.477132572792470455e-01
4.039216521196067333e-01
4.171235330868512392e-01
1.266821518074721098e-01
1.588818614836782217e-01
4.029556608293205500e-01
6.502494311425834894e-01
4.908608682453632355e-01
6.222356837242841721e-01
1.070777639513835311e+00
1.463614097563549876e+00
1.280719746602699161e+00
7.603724382352083921e-01
5.758681017905473709e-01
2.249609010759741068e+00
2.729384684935212135e+00
1.961743606254458427e+00
6.141857563052326441e-01
1.296175607247278094e+00
2.479514937847852707e+00
2.214833324309438467e+00
1.356389064341783524e+00
2.445330892223864794e-01
5.275685372762382030e-01
3.147284563165158033e-01
2.880026972852647305e-01
4.064976288937032223e-01
3.527241137344390154e-01
1.537299079354852438e-01
5.971199101768434048e-01
1.672537859994918108e-01
4.496452398598194122e-01
2.570909759961068630e-01
4.937588421162217855e-01
6.306076082400977612e-01
3.234223779290914536e-01
2.754448105115443468e-01
2.902566769625991583e-01
9.184730127453804016e-01
1.122297174995765090e+00
9.329628820996731520e-01
4.200215069577097893e-01
1.086503143887966871e-01
2.026734666433185339e-01
4.989107956644147635e-01
6.151517475955188274e-01
5.404484211467206478e-01
2.168413389008492231e-01
5.146886534057557583e-01
9.152530417777597904e-01
9.622646179050207138e-01
4.100395969580858946e-01
2.760888047050684690e-01
5.716821395326405764e-01
9.081691056489944458e-01
1.070777639513835311e+00
1.097503398545086384e+00
6.486394456587731838e-01
2.509730311576277018e-01
1.614578382577747107e-01
3.936177450232207775e-01
6.467074630782008171e-01
4.886068885680288076e-01
2.548369963187724352e-01
2.751228134147822857e-01
6.895330769475549459e-01
3.733319279272109270e-01
1.447139892261475325e-01
4.934368450194597244e-01
7.091748998500406742e-01
7.204447982367128134e-01
4.251734605059027672e-01
1.530859137419611216e-01
1.273261460009962320e-01
1.534079108387231827e-01
6.525034108199179173e-01
1.207948402734473348e+00
6.586213556583970785e-01
6.595873469486832619e-01
1.390198759501799941e+00
1.252384002087637782e+00
6.750432075932621956e-01
4.747610134072601795e-01
6.299636140465736389e-01
8.653434917796403170e-01
1.132279084995388985e+00
1.065947683062404394e+00
4.142255592159926891e-01
4.081076143775135279e-01
7.722863308154046535e-01
3.221343895420432091e-01
5.517183195333927870e-01
9.893123740330338478e-01
7.420186037197709084e-01
3.124744766391813755e-01
3.533681079279631376e-01
3.810598582495003939e-01
2.490410485770553350e-01
6.943630333989858627e-01
9.423007979057729244e-01
4.840989292133599520e-01
8.911032595206052065e-01
2.178769649472087622e+00
1.829080802388489246e+00
5.584802585653960705e-01
7.999780811369419098e-01
1.485509900143370032e+00
1.439142318209633231e+00
1.423042463371530175e+00
1.304225534666329622e+00
5.101806940510869026e-01
1.794896756764501333e-01
5.336864821147173643e-01
2.255352605134248734e-01
5.584802585653960705e-01
9.084911027457565069e-01
1.202474452089518309e+00
8.196199040394276381e-01
5.829520379193127155e-01
6.347935704980045557e-01
1.711177511606365442e-01
5.317544995341449976e-01
5.790880727581679821e-01
6.193377098534256220e-01
3.543340992182493210e-01
4.432052979245781898e-01
4.473912601824849844e-01
3.276083401869982481e-01
2.368051589000970125e-01
5.681401714682579041e-01
9.010851695202291012e-01
8.750034046825021505e-01
9.812624466139823198e-01
7.001589811407029629e-01
3.311503082513809204e-01
1.785236843861639500e-01
3.098984998650848866e-01
1.521199224516749382e-01
2.606329440604895353e-01
1.524419195484369993e-01
1.460019776131957769e-01
1.382740472909063101e-01
1.946235392242670059e-01
1.150902563240379095e-01
3.685019714757800102e-01
5.736141221132129431e-01
7.394426269456744194e-01
7.825902379117906094e-01
4.444932863116264343e-01
3.334042879287153482e-01
4.383753414731472731e-01
2.580569672863930464e-01
1.022103724535554647e-01
9.222846245393157005e-02
1.331220937427133322e-01
1.292581285815685987e-01
4.412733153440058231e-01
6.161177388858050108e-01
2.490410485770553350e-01
1.630678237415850163e-01
4.824889437295496464e-01
1.020546092418953776e+00
9.864144001621752977e-01
2.493630456738173962e-01
4.448152834083884954e-01
9.542146904859691858e-01
1.118755206931382418e+00
7.916061566211283207e-01
5.285345285665243864e-01
6.003398811444640160e-01
6.441314863041043282e-01
5.642762063071131706e-01
7.928941450081765652e-01
9.435887862928211689e-01
7.449165775906294584e-01
1.720837424509227276e-01
5.356184646952897310e-01
4.058536347001791000e-01
1.707957540638744831e-01
2.139433650299906731e-01
2.522610195446759462e-01
1.305461169686168432e-01
1.173442360013723373e-01
4.135815650224685669e-01
8.830533321015536785e-01
1.403400640469044447e+00
1.730227693682536483e+00
1.960777614964172244e+00
1.451700204983353615e+00
5.398044269531965256e-01
3.404882240574806929e-01
7.516785166226327419e-01
7.462045659776777029e-01
6.013058724347501993e-01
2.104013969656080008e-01
4.763709988910704851e-01
1.336747241439297795e+00
2.189717550761997700e+00
2.329464290756732225e+00
2.105998305603861809e+00
1.604004831751808524e+00
1.112315264996141195e+00
7.690663598477840424e-01
7.735743192024528980e-01
8.324997879099100828e-01
4.135815650224685669e-01
5.591242527589201927e-01
7.729303250089287758e-01
4.663890888914465904e-01
4.663890888914465904e-01
1.071743630804121494e+00
1.277177778538316488e+00
4.921488566324114799e-01
3.520801195409148932e-01
2.831727408338338137e-01
1.025323695503175259e-01
1.134802708402276039e-01
2.883246943820267916e-01
3.958717247005552053e-01
5.494643398560583591e-01
7.088529027532786131e-01
8.531076021026819944e-01
1.199576478218659759e+00
1.763393394649028778e+00
1.331917284987866879e+00
7.027349579147994518e-01
2.715808453503996134e-01
1.274279804667457938e+00
1.617850706912577152e+00
7.874201943632215261e-01
1.949455363210290670e-01
7.919281537178903818e-01
1.440752303693443537e+00
1.789153162389993668e+00
1.872872407548129559e+00
1.415958527242764831e+00
4.818449495360255241e-01
6.186937156599014997e-01
1.068201662739738822e+00
9.799744582269340754e-01
1.063693703385069966e+00
1.114891241770237684e+00
1.172850719187408686e+00
9.178290185518562794e-01
2.000974898692220449e-01
3.945837363135069609e-01
6.876010943669825792e-01
7.732523221056908369e-01
6.425215008202940226e-01
1.530859137419611216e-01
2.232812808360904455e-01
3.665699888952076435e-01
2.451770834159106016e-01
1.714397482573986053e-01
3.858898147009313107e-01
4.103615940548479557e-01
3.098984998650848866e-01
3.363022617995738983e-01
7.574744643643498421e-01
8.489216398447751999e-01
3.012045782525092363e-01
8.205858953297138214e-01
1.189594568219035864e+00
8.041640433948487043e-01
3.813818553462624550e-01
2.178073301911354065e-01
1.234621808398514986e-01
1.952675334177911282e-01
4.032776579260826111e-01
1.030849999515339732e+00
1.344475171761587262e+00
1.088809476932510734e+00
8.675974714569747448e-01
7.645584004931151867e-01
6.763311959803104401e-01
3.881437943782657385e-01
1.521199224516749382e-01
4.322573966346681118e-01
6.364035559818148613e-01
7.874201943632215261e-01
8.463456630706787109e-01
7.194788069464266300e-01
2.851047234144061804e-01
2.426011066418141127e-01
1.711177511606365442e-01
2.461430747061967850e-01
5.517183195333927870e-01
6.756872017867863178e-01
8.328217850066721439e-01
6.042038463056087494e-01
5.526843108236789703e-01
8.505316253285855055e-01
8.247718575876206160e-01
6.215916895307600498e-01
4.312914053443819284e-01
1.691857685800641775e-01
1.028543666470795870e-01
2.680388772860169411e-01
1.289361314848065376e-01
2.039614550303667784e-01
2.442110921256244183e-01
3.131184708327054977e-01
1.994534956756979227e-01
2.918666624464094639e-01
2.715808453503996134e-01
1.669317889027297497e-01
2.683608743827790022e-01
4.052096405066549778e-01
4.850649205036461353e-01
1.617798353545367718e-01
1.192762185819447041e-01
3.665699888952076435e-01
8.569715672638267279e-01
1.060473732417449355e+00
1.133889070479199290e+00
9.072031143587082624e-01
7.307487053330987692e-01
5.816640495322644711e-01
6.399455240461975336e-01
5.665301859844475985e-01
4.979448043741285801e-01
2.293992256745696068e-01
4.506112311501055956e-01
4.480352543760091066e-01
2.625649266410619020e-01
1.334440908394753933e-01
4.969788130838423967e-01
8.598695411346852779e-01
1.215676333056762815e+00
8.479556485544890165e-01
4.422393066342920065e-01
1.528013516915962100e+00
2.266996853984892368e+00
1.998451275285333395e+00
1.182832629187032580e+00
6.724672308191657066e-01
6.399455240461975336e-01
4.960128217935562134e-01
1.447139892261475325e-01
6.180497214663773775e-01
7.487805427517741919e-01
4.309694082476198673e-01
6.322175937239080667e-01
4.506112311501055956e-01
4.499672369565814734e-01
9.780424756463617086e-01
1.208592396927997470e+00
1.072709622094407678e+00
4.960128217935562134e-01
3.781618843786418438e-01
7.706763453315943480e-01
4.828109408263117075e-01
4.132595679257065058e-01
2.538710050284862518e-01
3.784838814754039049e-01
4.077856172807514668e-01
2.075034230947494507e-01
1.907595740631222725e-01
4.718630395364016294e-01
7.999780811369419098e-01
6.827711379155516624e-01
7.484585456550121307e-01
1.002192257903516293e+00
7.220547837205231190e-01
2.496850427705794573e-01
1.868956089019775391e-01
9.342508704867213964e-01
1.332239282084628940e+00
9.641966004855930805e-01
3.662479917984455824e-01
8.875612914562225342e-01
1.833910758839920163e+00
1.490339856594800949e+00
2.419571124482899904e-01
5.855280146934092045e-01
3.437081950251013041e-01
1.025323695503175259e-01
4.776589872781187296e-01
7.935381392017006874e-01
8.476336514577269554e-01
3.768738959915935993e-01
1.682197772897779942e-01
4.322573966346681118e-01
3.701119569595903158e-01
1.304869528859853745e+00
1.626866625621914864e+00
1.374098904663696885e+00
1.084945511771366000e+00
6.283536285627633333e-01
1.897935827728360891e-01
5.079267143737524748e-01
7.445945804938673973e-01
6.644173034001141787e-01
5.275685372762382030e-01
5.040627492126077414e-01
3.095765027683228254e-01
2.809187611564993858e-01
5.127566708251833916e-01
2.970186159946024418e-01
9.963439567945897579e-02
9.995639277622103691e-02
3.343702792190015316e-01
2.673948830924928188e-01
1.105822969693690538e-01
9.351645084097981453e-02
3.105424940586090088e-01
5.971199101768434048e-01
5.340084792114794254e-01
4.023116666357964277e-01
1.025054051773622632e+00
1.066269680159166455e+00
7.864542030729353428e-01
2.992725956719368696e-01
1.179882301948964596e-01
2.770547959953546524e-01
3.713999453466385603e-01
4.805569611489772797e-01
2.812407582532614470e-01
4.419173095375299454e-01
1.234996158862486482e+00
1.760817417874932289e+00
9.999382782261818647e-01
6.563673759810626507e-01
7.990120898466557264e-01
3.012045782525092363e-01
6.743992133997380733e-01
1.211812367895618081e+00
1.467478062724694610e+00
9.345728675834834576e-01
5.169426330830901861e-01
1.071421633707359433e+00
6.763311959803104401e-01
2.091134085785597563e-01
1.034983608406037092e-01
2.474310630932450294e-01
3.375902501866221428e-01
2.165193418040871620e-01
1.208862040657550097e-01
4.705750511493533850e-01
8.733934191986918449e-01
1.003480246290564537e+00
6.370475501753389835e-01
2.368051589000970125e-01
9.287245664745569229e-02
1.234621808398514986e-01
9.416044503450393677e-02
9.351645084097981453e-02
1.282921372912824154e-01
1.057523405179381371e-01
1.270041489042341709e-01
2.612769382540136576e-01
3.053905405104160309e-01
5.768340930808335543e-01
5.736141221132129431e-01
5.652421975973993540e-01
8.907812624238431454e-01
1.105875323060899973e+00
7.088529027532786131e-01
1.466459718067198992e-01
1.469679689034819603e-01
2.017074753530323505e-01
1.872176059987396002e-01
6.557233817875385284e-01
1.067235671449452639e+00
1.265263885958120227e+00
1.063371706288307905e+00
4.309694082476198673e-01
5.536503021139651537e-01
1.221150283701717854e+00
1.072065627900883555e+00
3.504701340571045876e-01
3.536901050247251987e-01
2.007414840627461672e-01
3.530461108312010765e-01
1.994534956756979227e-01
1.798116727732121944e-01
1.595258556772023439e-01
1.373080560006201267e-01
3.214903953485190868e-01
4.042436492163687944e-01
2.590229585766792297e-01
7.091748998500406742e-01
6.618413266260176897e-01
2.773767930921167135e-01
3.108644911553710699e-01
2.355171705130487680e-01
3.903977740556001663e-01
1.063693703385069966e+00
6.805171582382172346e-01
1.224961895495653152e-01
1.588818614836782217e-01
4.306474111508578062e-01
5.813420524355024099e-01
3.797718698624521494e-01
3.707559511531144381e-01
4.969788130838423967e-01
6.125757708214223385e-01
5.275685372762382030e-01
1.775576930958777666e-01
4.609151382464915514e-01
5.671741801779717207e-01
3.337262850254774094e-01
9.641966004855930805e-01
8.144679504912346601e-01
3.250323634129017591e-01
4.052096405066549778e-01
1.169630748219788074e+00
1.329985302407294512e+00
6.650612975936383009e-01
2.570909759961068630e-01
5.233825750183314085e-01
4.168015359900891781e-01
3.443521892186254263e-01
1.456799805164337158e-01
5.742581163067370653e-01
7.442725833971053362e-01
4.557631846982985735e-01
2.351951734162867069e-01
3.929737508296966553e-01
7.310707024298608303e-01
6.669932801742106676e-01
2.863927118014544249e-01
4.032776579260826111e-01
8.753254017792642117e-01
1.301649557892233133e+00
1.224048257572576404e+00
8.840193233918398619e-01
2.042834521271288395e-01
4.969788130838423967e-01
7.053109346888959408e-01
5.649202005006372929e-01
5.101806940510869026e-01
5.481763514690101147e-01
3.543340992182493210e-01
1.376300530973821878e-01
4.679990743752568960e-01
6.393015298526734114e-01
6.795511669479310513e-01
7.523225108161568642e-01
9.757884959690272808e-01
9.938203333877027035e-01
8.363637530710548162e-01
5.584802585653960705e-01
1.450359863229095936e-01
4.593051527626812458e-01
6.531474050134420395e-01
8.006220753304660320e-01
1.051457813708111644e+00
1.039221924031153321e+00
8.141459533944725990e-01
1.701517598703503609e-01
2.171633359976112843e-01
2.322971995454281569e-01
6.351155675947666168e-01
1.036967944353818893e+00
1.068523659836500883e+00
8.093159969430416822e-01
2.796307727694511414e-01
1.836756379343569279e-01
3.227783837355673313e-01
1.839976350311189890e-01
9.899040148593485355e-02
1.179882301948964596e-01
1.849636263214051723e-01
1.299021227750927210e-01
2.577349701896309853e-01
1.305461169686168432e-01
1.192762185819447041e-01
3.408102211542427540e-01
1.517979253549128771e-01
4.783029814716428518e-01
6.409115153364837170e-01
6.673152772709727287e-01
5.195186098571866751e-01
1.614578382577747107e-01
2.702928569633513689e-01
3.524021166376769543e-01
3.768738959915935993e-01
2.023514695465564728e-01
2.023514695465564728e-01
1.794896756764501333e-01
2.094354056753218174e-01
2.419571124482899904e-01
4.113275853451341391e-01
4.605931411497294903e-01
1.614952733041718602e+00
1.884464303031563759e+00
1.647474439814686775e+00
1.622680663364008069e+00
1.382148832082748413e+00
6.718232366256415844e-01
5.427024008240550756e-01
1.594666915945708752e+00
1.381826834985986352e+00
8.553615817800164223e-01
4.010236782487481833e-01
1.418160153552889824e-01
1.595258556772023439e-01
3.057125376071780920e-01
2.841387321241199970e-01
1.521199224516749382e-01
1.588818614836782217e-01
3.665699888952076435e-01
5.613782324362546206e-01
4.113275853451341391e-01
1.047863492276519537e-01
1.022103724535554647e-01
1.392400385811924934e-01
3.330822908319532871e-01
1.389180414844304323e-01
1.614578382577747107e-01
3.224563866388052702e-01
7.123948708176612854e-01
9.345728675834834576e-01
4.728290308266878128e-01
4.139035621192306280e-01
7.426625979132950306e-01
1.067879665642976761e+00
1.082691532094031572e+00
3.066785288974642754e-01
4.812009553425014019e-01
5.481763514690101147e-01
3.759079047013074160e-01
4.506112311501055956e-01
4.103615940548479557e-01
1.736937279347330332e-01
2.139433650299906731e-01
5.079267143737524748e-01
1.755665464326739311e+00
2.179413643665611744e+00
2.172329707536846399e+00
1.875770381418988109e+00
1.660676320781931281e+00
1.159648838220164180e+00
7.539324962999671698e-01
5.043847463093698025e-01
4.081076143775135279e-01
1.374420901760458946e+00
2.027431013993918896e+00
2.288892656564712524e+00
2.394507704302668571e+00
2.319804377853870392e+00
2.222883251728489995e+00
1.355101075954735279e+00
4.596271498594433069e-01
3.224563866388052702e-01
8.618015237152576447e-01
1.112959259189665318e+00
1.158360849833115935e+00
8.717834337148815393e-01
5.018087695352733135e-01
6.302856111433357000e-01
5.546162934042513371e-01
2.603109469637274742e-01
1.839976350311189890e-01
6.496054369490593672e-01
7.974021043628454208e-01
3.762299017980694771e-01
7.391206298489123583e-01
1.292633639182895422e+00
1.242724089184775949e+00
1.121331183705478907e+00
9.110670795198529959e-01
4.593051527626812458e-01
1.373080560006201267e-01
3.420982095412909985e-01
6.756872017867863178e-01
1.052745802095159888e+00
1.073353616287931800e+00
6.663492859806865454e-01
1.984875043854117393e-01
2.857487176079303026e-01
1.456799805164337158e-01
2.789867785759270191e-01
2.767327988985925913e-01
1.807776640634983778e-01
1.363420647103339434e-01
2.751228134147822857e-01
4.048876434098929167e-01
6.521814137231558561e-01
6.003398811444640160e-01
2.892906856723129749e-01
3.343702792190015316e-01
2.303652169648557901e-01
1.273261460009962320e-01
3.240663721226155758e-01
8.914252566173672676e-01
1.193780530476942658e+00
9.107450824230909348e-01
3.501481369603425264e-01
2.593449556734412909e-01
1.208862040657550097e-01
5.623442237265408039e-01
9.790084669366478920e-01
1.228556216927245259e+00
9.902783653233200312e-01
7.387986327521502972e-01
6.930750450119376183e-01
2.184513243846595287e-01
3.681799743790179491e-01
7.697103540413081646e-01
1.228878214024007320e+00
1.247554045636206865e+00
8.209078924264758825e-01
5.787660756614059210e-01
1.559838876128196716e-01
5.472103601787239313e-01
5.362624588888138533e-01
4.306474111508578062e-01
3.514361253473907709e-01
2.422791095450520515e-01
1.794896756764501333e-01
2.155533505138009787e-01
4.554411876015365124e-01
4.354773676022887230e-01
6.064578259829431772e-01
1.366692971438169479e+00
1.530267496593296528e+00
1.283295723376795650e+00
3.404882240574806929e-01
3.047465463168919086e-01
2.522610195446759462e-01
6.312516024336218834e-01
1.493559827562421560e+00
1.453954184660688043e+00
9.893123740330338478e-01
3.456401776056736708e-01
4.818449495360255241e-01
7.854882117826491594e-01
7.948261275887489319e-01
5.639542092103511095e-01
1.682197772897779942e-01
4.267834459897130728e-01
9.674165714532136917e-01
1.105875323060899973e+00
9.046271375846117735e-01
5.546162934042513371e-01
1.434260008390992880e-01
4.187335185706615448e-01
6.673152772709727287e-01
8.785453727468848228e-01
8.399057211354374886e-01
8.125359679106622934e-01
9.735345162916928530e-01
9.654845888726413250e-01
6.975830043666064739e-01
3.826698437333106995e-01
6.270656401757150888e-01
6.125757708214223385e-01
3.939397421199828386e-01
1.065303688868880272e+00
1.138719026930630207e+00
5.295005198568105698e-01
4.660670917946845293e-01
1.001226266613230109e+00
6.087118056602776051e-01
1.244281721301376820e-01
2.532270108349621296e-01
4.287154285702854395e-01
1.051135816611349583e+00
7.078869114629924297e-01
1.501879398711025715e-01
3.192364156711846590e-01
5.484983485657721758e-01
7.323586908169090748e-01
6.792291698511689901e-01
7.671343772672116756e-01
1.026986034354194999e+00
1.271381830796599388e+00
1.040187915321439505e+00
3.868558059912174940e-01
4.953688276000320911e-01
1.477459972724318504e+00
1.565365180140361190e+00
1.318071409827098250e+00
5.835960321128368378e-01
5.739361192099750042e-01
2.049274463206529617e-01
7.977241014596074820e-01
3.610960382502526045e-01
1.498659427743405104e-01
2.857487176079303026e-01
4.486792485695332289e-01
2.728688337374478579e-01
3.375902501866221428e-01
8.518196137156337500e-01
1.274601801764219999e+00
1.070777639513835311e+00
2.950866334140300751e-01
1.053389796288684011e+00
8.540735933929681778e-01
1.646778092253953218e-01
6.879230914637446404e-01
9.641966004855930805e-01
7.381546385586261749e-01
4.235634750220924616e-01
4.515772224403917789e-01
7.674563743639737368e-01
4.860309117939323187e-01
1.981655072886496782e-01
2.432451008353382349e-01
5.211285953409969807e-01
8.106039853300899267e-01
6.470294601749628782e-01
4.422393066342920065e-01
3.398442298639565706e-01
6.215916895307600498e-01
3.485381514765322208e-01
3.710779482498764992e-01
2.322971995454281569e-01
1.514759282581508160e-01
1.224961895495653152e-01
1.904375769663602114e-01
1.092943085823208094e-01
2.358391676098108292e-01
1.621018324512988329e-01
6.106437882408499718e-01
9.645185975823551416e-01
4.457812746986746788e-01
4.393413327634334564e-01
1.031815990805625916e+00
1.461360117886215448e+00
1.773053307551890612e+00
1.206338417250663042e+00
6.460634688846766949e-01
4.931148479226976633e-01
4.982668014708906412e-01
3.646380063146352768e-01
4.064976288937032223e-01
2.078254201915115118e-01
4.396633298601955175e-01
1.050169825321063399e+00
1.030849999515339732e+00
5.111466853413730860e-01
4.068196259904652834e-01
6.238456692080944777e-01
5.848840204998850822e-01
2.889686885755509138e-01
7.822682408150285482e-01
2.265012518037110567e-01
6.396235269494354725e-01
8.608355324249714613e-01
6.277096343692392111e-01
2.857487176079303026e-01
1.595258556772023439e-01
3.569100759923458099e-01
4.435272950213402510e-01
2.293992256745696068e-01
1.791676785796880722e-01
2.580569672863930464e-01
1.649998063221573830e-01
5.230605779215693474e-01
2.190953185781836510e-01
5.913239624351263046e-01
1.223082266282290220e+00
1.877702363999560475e+00
1.382792826276272535e+00
1.071743630804121494e+00
8.788673698436468840e-01
3.066785288974642754e-01
4.618811295367777348e-01
7.552204846870154142e-01
9.600106382276862860e-01
4.631691179238259792e-01
6.331835850141942501e-01
8.663094830699265003e-01
6.872790972702205181e-01
7.439505863003432751e-01
1.065303688868880272e+00
1.259467938216403127e+00
8.479556485544890165e-01
4.702530540525913239e-01
3.910417682491242886e-01
3.012045782525092363e-01
1.962335247080773115e-01
3.053905405104160309e-01
1.408500240650027990e-01
6.686032656580209732e-01
1.173172716284170747e+00
7.523225108161568642e-01
3.681799743790179491e-01
2.403471269644796848e-01
1.302241198718547821e-01
1.936575479339808226e-01
1.859296176116913557e-01
3.771958930883556604e-01
5.398044269531965256e-01
4.628471208270639181e-01
4.354773676022887230e-01
3.884657914750277996e-01
5.001987840514630079e-01
7.500685311388224363e-01
8.576155614573508501e-01
4.576951672788709402e-01
1.682197772897779942e-01
4.325793937314301729e-01
6.904990682378411293e-01
1.058863746933639050e+00
1.165766783058643341e+00
5.076047172769904137e-01
3.511141282506287098e-01
9.233029691968113184e-01
9.397248211316764355e-01
9.033391491975635290e-01
1.037611938547343016e+00
1.027308031450957060e+00
4.547971934080123901e-01
8.202638982329517603e-01
1.543147380463778973e+00
1.002836252097040415e+00
6.299636140465736389e-01
1.259467938216403127e+00
8.804773553274571896e-01
3.794498727656900883e-01
1.247501692268997431e-01
1.144462621305137873e-01
5.604122411459684372e-01
6.518594166263937950e-01
1.183476623380556703e+00
1.228234219830483198e+00
4.490012456662952900e-01
1.495439456775784492e-01
3.092545056715607643e-01
4.361213617958128452e-01
7.375106443651020527e-01
1.257213958539068699e+00
1.078505569836124778e+00
7.426625979132950306e-01
4.393413327634334564e-01
1.701517598703503609e-01
4.396633298601955175e-01
6.859911088831722736e-01
7.606944353319704533e-01
4.985887985676527023e-01
1.659657976124435663e-01
7.532885021064430475e-01
9.223369779065251350e-01
4.737950221169739962e-01
2.374491530936211348e-01
6.122537737246602774e-01
6.814831495285034180e-01
4.461032717954367399e-01
2.432451008353382349e-01
4.100395969580858946e-01
1.704737569671124220e-01
7.574744643643498421e-01
8.212298895232379436e-01
5.897139769513159990e-01
4.641351092141121626e-01
1.200864466605708003e+00
1.480679943691939116e+00
1.462970103370025754e+00
1.189916565315797925e+00
5.040627492126077414e-01
1.914035682566463947e-01
6.090338027570396662e-01
8.031980521045625210e-01
8.885272827465087175e-01
9.429447920992970467e-01
8.611575295217335224e-01
4.048876434098929167e-01
3.221343895420432091e-01
6.232016750145703554e-01
7.835562292020767927e-01
7.400866211391985416e-01
1.843196321278810501e-01
5.220945866312831640e-01
2.635309179313480854e-01
3.511141282506287098e-01
6.141857563052326441e-01
5.855280146934092045e-01
4.557631846982985735e-01
3.553000905085355043e-01
4.776589872781187296e-01
3.817038524430245161e-01
3.008825811557471752e-01
4.341893792152404785e-01
5.726481308229267597e-01
4.828109408263117075e-01
4.068196259904652834e-01
6.325395908206701279e-01
6.592653498519212008e-01
8.215518866200000048e-01
1.261721917893737555e+00
6.888890827540308237e-01
4.155135476030409336e-01
4.522212166339159012e-01
6.785851756576448679e-01
6.380135414656251669e-01
2.709368511568754911e-01
4.924708537291735411e-01
5.736141221132129431e-01
3.575540701858699322e-01
7.780822785571217537e-01
1.042441894998773932e+00
1.208592396927997470e+00
1.084301517577841878e+00
2.271452459972351789e-01
3.797718698624521494e-01
5.636322121135890484e-01
1.374742898857221007e+00
1.291345650795847178e+00
7.404086182359606028e-01
3.433861979283392429e-01
1.387300785630941391e+00
1.562467206269502640e+00
8.724274279084056616e-01
3.958717247005552053e-01
2.297212227713316679e-01
2.860707147046923637e-01
3.198804098647087812e-01
4.602711440529674292e-01
7.742183133959770203e-01
7.210887924302369356e-01
5.893919798545539379e-01
1.749817163217812777e-01
6.621633237227797508e-01
8.415157066192477942e-01
8.856293088756501675e-01
3.340482821222394705e-01
5.224165837280452251e-01
9.812624466139823198e-01
5.932559450156986713e-01
4.654230976011604071e-01
1.121975177899003029e+00
1.438176326919347048e+00
1.161902817897498608e+00
2.487190514802932739e-01
3.144064592197537422e-01
4.290374256670475006e-01
8.392617269419133663e-01
4.766929959878325462e-01
2.190953185781836510e-01
4.370873530860990286e-01
7.175468243658542633e-01
3.742979192174971104e-01
1.514759282581508160e-01
4.905388711486011744e-01
6.145077534019947052e-01
1.678977801930159330e-01
7.532885021064430475e-01
1.069811648223549128e+00
7.375106443651020527e-01
3.623840266373008490e-01
1.208862040657550097e-01
2.529050137382000685e-01
2.029954637400805950e-01
1.208862040657550097e-01
2.979846072848886251e-01
1.765917018055915833e-01
6.380135414656251669e-01
8.553615817800164223e-01
2.767327988985925913e-01
8.360417559742927551e-01
1.021834080806002021e+00
7.220547837205231190e-01
9.461647630669176579e-01
1.106519317254424095e+00
8.502096282318234444e-01
3.147284563165158033e-01
8.170439272653311491e-01
1.041797900805249810e+00
6.705352482385933399e-01
2.197393127717077732e-01
2.899346798658370972e-01
1.849636263214051723e-01
3.556220876052975655e-01
2.474310630932450294e-01
1.843196321278810501e-01
7.906401653308421373e-01
1.653592384653165936e+00
1.652304396266117692e+00
1.387300785630941391e+00
6.467074630782008171e-01
4.187335185706615448e-01
9.632306091953068972e-01
1.165766783058643341e+00
5.974419072736054659e-01
1.508319340646266937e-01
1.649998063221573830e-01
6.605533382389694452e-01
6.653832946904003620e-01
4.061756317969411612e-01
1.257161605171859264e-01
3.131184708327054977e-01
1.968775189016014338e-01
3.224563866388052702e-01
2.219932924490422010e-01
1.034983608406037092e-01
3.285743314772844315e-01
5.179086243733763695e-01
4.422393066342920065e-01
1.394062724662944674e+00
1.785611194325610995e+00
1.074641604674980044e+00
6.837371292058378458e-01
7.787262727506458759e-01
5.987298956606537104e-01
5.665301859844475985e-01
1.428194416919723153e+00
1.382470829179510474e+00
3.453181805089116096e-01
6.222356837242841721e-01
9.487407398410141468e-01
1.052423804998397827e+00
8.257378488779067993e-01
8.940012333914637566e-01
8.920692508108913898e-01
2.429231037385761738e-01
1.067557668546214700e+00
2.185209591407328844e+00
2.063816685928031802e+00
1.821030874969437718e+00
8.537515962962061167e-01
4.322573966346681118e-01
1.917255653534084558e-01
7.072429172694683075e-01
5.172646301798522472e-01
1.437479979358613491e-01
4.634911150205880404e-01
1.974623490124940872e+00
3.460640091681852937e+00
2.612499738810583949e+00
1.326121337246149778e+00
2.210273011587560177e-01
7.249527575913816690e-01
8.273478343617171049e-01
6.438094892073422670e-01
1.891495885793119669e-01
6.380135414656251669e-01
1.178324669832363725e+00
1.138397029833868146e+00
7.368666501715779305e-01
5.858500117901712656e-01
7.970801072660833597e-01
7.181908185593783855e-01
6.273876372724771500e-01
4.135815650224685669e-01
3.279303372837603092e-01
4.708970482461154461e-01
7.114288795273751020e-01
1.191848547896370292e+00
1.705755914328619838e+00
1.769189342390745878e+00
1.418534504016861320e+00
9.120330708101391792e-01
8.453796717803925276e-01
1.070455642417073250e+00
9.213709866162389517e-01
8.350757646840065718e-01
1.000582272419705987e+00
4.696090598590672016e-01
1.018292112741619349e+00
1.498067786917090416e+00
1.066591677255928516e+00
5.301445140503346920e-01
1.532521476270630956e+00
1.656812355620786548e+00
1.137109041446819901e+00
4.187335185706615448e-01
6.531474050134420395e-01
1.299073581118136644e+00
1.068201662739738822e+00
5.285345285665243864e-01
1.231401837430894375e-01
1.566278818063437939e-01
5.336864821147173643e-01
6.666712830774486065e-01
5.014867724385112524e-01
2.918666624464094639e-01
2.564469818025827408e-01
3.137624650262296200e-01
2.635309179313480854e-01
1.173442360013723373e-01
2.690048685763031244e-01
6.834151321090757847e-01
8.064180230721831322e-01
4.721850366331636906e-01
1.427820066455751657e-01
3.231003808323293924e-01
7.877421914599835873e-01
1.250130022410303354e+00
1.418534504016861320e+00
1.290701656602323055e+00
8.447356775868684053e-01
3.224563866388052702e-01
5.716821395326405764e-01
1.184442614670842886e+00
1.160292832413688302e+00
6.215916895307600498e-01
2.200613098684698343e-01
7.284947256557643414e-01
1.043407886289060116e+00
1.109095294028520584e+00
7.681003685574978590e-01
7.990120898466557264e-01
5.298225169535726309e-01
4.380533443763852119e-01
7.294607169460505247e-01
8.563275730703026056e-01
3.005605840589851141e-01
7.091748998500406742e-01
1.391164750792086124e+00
2.047394833993166685e+00
2.639225497841835022e+00
1.812980947550386190e+00
2.438890950288623571e-01
6.682812685612589121e-01
9.123550679069012403e-01
6.376915443688631058e-01
2.796307727694511414e-01
7.088529027532786131e-01
1.139363021124154329e+00
1.182510632090270519e+00
1.393418730469420552e+00
1.404366631759330630e+00
7.072429172694683075e-01
2.000974898692220449e-01
4.377313472796231508e-01
1.901155798695981503e-01
2.351951734162867069e-01
9.951083217747509480e-01
1.258823944022879004e+00
1.233064176281914115e+00
1.039221924031153321e+00
1.071099636610597372e+00
1.405010625952854753e+00
1.152886899188160896e+00
8.031980521045625210e-01
4.470692630857229233e-01
2.374491530936211348e-01
2.516170253511518240e-01
2.551589934155344963e-01
4.718630395364016294e-01
9.371488443575799465e-01
1.095249418867751956e+00
5.977639043703675270e-01
2.802747669629752636e-01
5.758681017905473709e-01
1.245300065958872437e+00
1.551841302076354623e+00
1.072387624997645617e+00
7.387986327521502972e-01
5.803760611452162266e-01
2.306872140616178513e-01
3.234223779290914536e-01
9.155750388745218515e-01
1.320969383697956800e+00
1.192814539186656475e+00
6.228796779178082943e-01
3.047465463168919086e-01
4.679990743752568960e-01
4.454592776019126177e-01
2.786647814791649580e-01
7.822682408150285482e-01
9.175070214550942183e-01
7.169028301723301411e-01
5.204846011474728584e-01
4.818449495360255241e-01
1.569498789031058550e-01
5.584802585653960705e-01
6.679592714644968510e-01
4.493232427630573511e-01
4.290374256670475006e-01
4.976228072773665190e-01
3.269643459934741259e-01
1.595258556772023439e-01
5.513963224366307259e-01
3.733319279272109270e-01
1.267517865635454655e+00
1.525115543045103550e+00
1.715737824328243732e+00
2.158161835279315710e+00
1.933085864642634988e+00
1.556349261431023479e+00
5.942219363059848547e-01
1.062727712094783783e+00
2.205817405600100756e+00
2.217087303986772895e+00
1.415314533049240708e+00
4.921488566324114799e-01
3.044245492201298475e-01
1.701517598703503609e-01
6.116097795311361551e-01
6.257776517886668444e-01
4.264614488929510117e-01
4.840989292133599520e-01
5.269245430827140808e-01
1.704737569671124220e-01
5.967979130800813437e-01
1.934051855932921171e+00
2.339446200756356120e+00
1.827148819807916880e+00
1.184764611767604947e+00
9.039831433910876513e-01
7.053109346888959408e-01
2.322971995454281569e-01
1.008310202741995454e+00
9.716025337111204863e-01
7.259187488816678524e-01
1.070777639513835311e+00
1.153852890478447080e+00
1.290701656602323055e+00
2.046750839799642563e+00
2.378729846561327577e+00
1.514167641755193472e+00
6.486394456587731838e-01
7.333246821071952581e-01
1.682250126264989376e+00
2.219985277857631445e+00
2.598653863649815321e+00
2.319160383660346270e+00
2.068646642379462719e+00
1.926323925610631704e+00
1.051135816611349583e+00
2.519390224479138851e-01
6.869571001734584570e-01
9.719245308078825474e-01
1.605292820138856769e+00
2.145603948505595326e+00
2.468567036557942629e+00
1.915698021417483687e+00
1.335137255955487490e+00
1.155784873059019446e+00
6.879230914637446404e-01
4.750830105040222406e-01
1.148378939833492041e+00
1.118433209834620357e+00
6.167617330793291330e-01
3.636720150243490934e-01
8.196199040394276381e-01
6.277096343692392111e-01
1.765917018055915833e-01
3.804158640559762716e-01
3.694679627660661936e-01
4.963348188903182745e-01
5.848840204998850822e-01
4.158355446998029947e-01
5.649202005006372929e-01
1.075285598868504167e+00
3.076445201877504587e-01
1.067557668546214700e+00
1.700281963683664799e+00
1.796881092712283134e+00
1.850010613678023219e+00
1.737955624004825950e+00
1.215998330153524876e+00
3.144064592197537422e-01
7.684223656542599201e-01
5.256365546956658363e-01
2.268232489004731178e-01
1.443972274661064148e+00
2.089898450765758753e+00
1.865466474322602153e+00
1.455242173047736287e+00
6.953290246892720461e-01
5.079267143737524748e-01
2.529050137382000685e-01
5.958319217897951603e-01
7.880641885567456484e-01
6.470294601749628782e-01
5.269245430827140808e-01
5.945439334027469158e-01
5.652421975973993540e-01
8.556835788767784834e-01
1.631374584976583719e+00
1.171240733703598380e+00
3.066785288974642754e-01
1.535097453044727445e+00
1.681606132071465254e+00
1.224370254669338465e+00
6.177277243696153164e-01
4.222754866350442171e-01
9.973623014520853758e-01
1.223404263379052281e+00
1.112959259189665318e+00
9.831944291945546865e-01
7.091748998500406742e-01
5.253145575989037752e-01
4.254954576026648283e-01
2.580569672863930464e-01
8.846633175853639841e-01
1.114247247576713562e+00
9.886683798395097256e-01
5.488203456625342369e-01
1.846416292246431112e-01
2.310092111583799124e-01
1.479339601937681437e-01
1.424600095488131046e-01
1.183102272916585207e-01
2.300432198680937290e-01
1.437479979358613491e-01
2.702928569633513689e-01
4.235634750220924616e-01
3.701119569595903158e-01
1.418160153552889824e-01
4.502892340533435345e-01
5.955099246930330992e-01
5.014867724385112524e-01
3.849238234106451273e-01
2.612769382540136576e-01
2.406691240612417459e-01
3.627060237340629101e-01
4.628471208270639181e-01
2.857487176079303026e-01
2.104013969656080008e-01
2.007414840627461672e-01
3.984477014746516943e-01
8.321777908131480217e-01
1.022156077902764082e+00
1.102333354996517301e+00
1.005090231774374843e+00
1.173494713380932808e+00
1.195390515960752964e+00
5.864940059836953878e-01
3.981257043778896332e-01
3.665699888952076435e-01
2.448550863191485405e-01
3.060345347039401531e-01
2.490410485770553350e-01
6.933970421086996794e-01
1.074963601771742105e+00
7.445945804938673973e-01
4.831329379230737686e-01
7.793702669441699982e-01
1.075285598868504167e+00
4.203435040544718504e-01
4.969788130838423967e-01
1.285549703054130077e+00
1.792051136260852218e+00
1.778205261100083590e+00
1.140651009511202574e+00
1.068845656933262944e+00
9.075251114554703236e-01
2.293992256745696068e-01
8.006220753304660320e-01
7.149708475917577744e-01
6.679592714644968510e-01
4.406293211504817009e-01
1.253941634204238653e-01
2.632089208345860243e-01
7.030569550115615129e-01
7.825902379117906094e-01
6.805171582382172346e-01
6.038818492088466883e-01
1.755343467229977250e+00
1.244978068862110376e+00
2.432451008353382349e-01
6.418775066267699003e-01
8.453796717803925276e-01
2.345511792227625847e-01
5.230605779215693474e-01
4.898948769550770521e-01
5.626662208233028650e-01
3.981257043778896332e-01
2.509730311576277018e-01
2.622429295442998409e-01
1.798116727732121944e-01
2.149093563202768564e-01
4.866749059874564409e-01
2.284332343842834234e-01
1.640338150318711996e-01
2.947646363172680140e-01
2.400251298677176237e-01
2.950866334140300751e-01
4.728290308266878128e-01
5.381944414693862200e-01
5.617002295330166817e-01
2.577349701896309853e-01
1.604918469674885273e-01
3.952277305070310831e-01
3.453181805089116096e-01
7.568304701708257198e-01
1.301971554988995194e+00
1.634916553040966392e+00
1.903462131740525365e+00
1.545401360141113400e+00
6.380135414656251669e-01
1.662877947092056274e-01
6.827711379155516624e-01
1.440430306596681476e+00
1.760817417874932289e+00
1.599496872397139668e+00
1.277177778538316488e+00
1.075929593062028289e+00
5.884259885642677546e-01
6.283536285627633333e-01
9.664505801629275084e-01
4.979448043741285801e-01
4.834549350198358297e-01
7.803362582344561815e-01
8.334657792001962662e-01
4.586611585691571236e-01
2.973406130913645029e-01
2.509730311576277018e-01
1.176662330981343985e-01
8.646994975861161947e-01
1.209880385315045714e+00
6.212696924339979887e-01
2.393811356741935015e-01
3.263203517999500036e-01
6.112877824343740940e-01
1.019902098225429654e+00
1.344475171761587262e+00
6.483174485620111227e-01
7.919281537178903818e-01
1.428516414016485214e+00
1.178324669832363725e+00
6.821271437220275402e-01
5.771560901775956154e-01
5.246705634053796530e-01
1.582378672901540995e-01
2.161973447073251009e-01
7.381546385586261749e-01
1.300039572408422828e+00
1.269449848216027021e+00
7.191568098496645689e-01
3.427422037348151207e-01
1.154496884671971202e+00
1.123585163382813334e+00
5.613782324362546206e-01
3.704339540563523769e-01
3.353362705092877150e-01
1.224961895495653152e-01
6.232016750145703554e-01
1.174782701767981052e+00
7.870981972664594650e-01
4.560851817950606346e-01
5.771560901775956154e-01
7.784042756538838148e-01
4.860309117939323187e-01
2.612769382540136576e-01
5.774780872743576765e-01
3.784838814754039049e-01
1.273261460009962320e-01
9.351645084097981453e-02
9.995639277622103691e-02
9.641442471183836460e-02
6.560453788843005896e-01
1.801389052066951990e+00
2.410285562044009566e+00
1.978487455286085606e+00
1.073997610481455922e+00
3.127964737359434366e-01
1.372488919179886580e+00
2.254438967211171985e+00
1.921493969159200788e+00
1.212778359185904264e+00
5.340084792114794254e-01
2.390591385774314404e-01
4.631691179238259792e-01
4.225974837318062782e-01
2.145873592235147953e-01
5.520403166301548481e-01
8.209078924264758825e-01
8.518196137156337500e-01
4.238854721188545227e-01
2.171633359976112843e-01
4.354773676022887230e-01
6.502494311425834894e-01
3.656039976049214602e-01
3.916857624426484108e-01
9.368268472608178854e-01
1.073353616287931800e+00
9.770764843560755253e-01
9.120330708101391792e-01
6.087118056602776051e-01
3.520801195409148932e-01
3.044245492201298475e-01
1.598478527739644051e-01
4.415953124407678843e-01
2.780207872856408358e-01
1.962335247080773115e-01
5.204846011474728584e-01
1.407908599823713303e+00
1.361863014986738563e+00
3.063565318007022142e-01
1.019258104031905532e+00
1.203440443379804492e+00
1.327087328536435962e+00
1.254315984668210149e+00
1.071099636610597372e+00
9.764324901625514030e-01
6.318955966271460056e-01
2.445330892223864794e-01
2.355171705130487680e-01
1.463239747099578381e-01
5.072827201802283525e-01
1.780459240777418017e+00
2.909703059121966362e+00
3.197568463627249002e+00
2.737112615257501602e+00
1.798813075292855501e+00
6.460634688846766949e-01
7.233427721075713634e-01
1.860636517871171236e+00
2.317228401079773903e+00
2.153009881731122732e+00
1.590480953687801957e+00
1.381826834985986352e+00
1.593056930461898446e+00
1.511269667884334922e+00
1.256891961442306638e+00
1.096859404351562262e+00
8.601915382314473391e-01
6.611973324324935675e-01
2.654629005119204521e-01
6.338275792077183723e-01
9.117110737133771181e-01
6.940410363022238016e-01
2.799527698662132025e-01
1.904375769663602114e-01
1.006003869697451591e-01
3.903977740556001663e-01
1.746597192250192165e-01
4.969788130838423967e-01
3.256763576064258814e-01
2.052494434174150229e-01
3.984477014746516943e-01
9.963963101617991924e-01
1.380860843695700169e+00
1.455886167241260409e+00
1.236928141443058848e+00
1.267195868538692594e+00
9.336068762931972742e-01
1.988095014821738005e-01
3.578760672826319933e-01
9.812624466139823198e-01
1.373454910470172763e+00
1.071743630804121494e+00
2.422791095450520515e-01
2.261792547069489956e-01
1.321561024524271488e-01
1.276481430977582932e-01
2.770547959953546524e-01
2.712588482536375523e-01
4.151915505062788725e-01
5.356184646952897310e-01
7.278507314622402191e-01
8.485996427480131388e-01
4.750830105040222406e-01
2.458210776094347239e-01
1.511539311613887548e-01
1.170222389046102762e-01
6.235236721113324165e-01
1.080759549513459206e+00
2.310092111583799124e-01
4.003796840552240610e-01
1.843196321278810501e-01
2.912226682528853416e-01
2.516170253511518240e-01
7.284947256557643414e-01
1.014750144677236676e+00
4.010236782487481833e-01
4.341893792152404785e-01
8.775793814565986395e-01
8.408717124257236719e-01
3.292183256708085537e-01
2.419571124482899904e-01
3.668919859919697046e-01
5.932559450156986713e-01
5.961539188865572214e-01
3.440301921218633652e-01
2.548369963187724352e-01
4.113275853451341391e-01
7.117508766241371632e-01
8.936792362947016954e-01
1.175104698864743114e+00
1.261077923700213432e+00
8.463456630706787109e-01
2.928326537366956472e-01
9.728905220981687307e-01
1.747293539810925722e+00
1.938881812384352088e+00
1.102011357899755239e+00
8.112479795236140490e-01
8.930352421011775732e-01
6.409115153364837170e-01
2.300432198680937290e-01
8.611575295217335224e-01
1.238860124023631215e+00
1.228234219830483198e+00
4.638131121173501015e-01
6.869571001734584570e-01
1.068523659836500883e+00
1.351237110793590546e+00
1.372166922083124518e+00
1.419822492403909564e+00
1.126805134350433946e+00
1.933355508372187614e-01
7.468485601712018251e-01
1.161580820800736547e+00
9.381148356478661299e-01
3.211683982517570257e-01
1.434260008390992880e-01
3.086105114780366421e-01
1.060795729514211416e+00
1.482933923369273543e+00
1.125839143060147762e+00
6.876010943669825792e-01
2.355171705130487680e-01
4.122935766354203224e-01
1.011852170806378126e+00
6.895330769475549459e-01
3.469281659927219152e-01
9.262009430676698685e-01
7.455605717841535807e-01
3.053905405104160309e-01
3.295403227675706148e-01
2.937986450269818306e-01
1.456799805164337158e-01
5.047067434061318636e-01
8.437696862965822220e-01
7.658463888801634312e-01
4.332233879249542952e-01
1.988095014821738005e-01
1.836756379343569279e-01
1.537299079354852438e-01
6.019498666282743216e-01
9.548586846794933081e-01
1.256891961442306638e+00
1.520607583690434694e+00
6.096777969505637884e-01
8.189759098459035158e-01
9.928543420974165201e-01
6.306076082400977612e-01
4.763709988910704851e-01
4.599491469562053680e-01
1.221472280798479915e+00
1.520607583690434694e+00
1.247876042732968926e+00
5.137226621154695749e-01
8.717834337148815393e-01
1.284261714667081833e+00
5.401264240499585867e-01
1.717617453541606665e-01
2.213492982555180788e-01
4.660670917946845293e-01
5.423804037272930145e-01
5.407704182434827089e-01
3.495041427668184042e-01
1.328000966459512711e-01
2.937986450269818306e-01
7.858102088794112206e-01
1.213422353379428387e+00
1.300039572408422828e+00
1.107807305641472340e+00
6.979050014633685350e-01
1.736937279347330332e-01
8.015880666207522154e-01
1.296497604344040155e+00
1.069811648223549128e+00
4.219534895382821560e-01
1.550178963225334883e-01
2.184513243846595287e-01
5.427024008240550756e-01
5.964759159833192825e-01
1.917255653534084558e-01
1.563058847095817327e-01
1.910815711598843336e-01
3.269643459934741259e-01
4.734730250202119350e-01
3.350142734125256538e-01
2.113673882558941841e-01
8.353977617807686329e-01
1.047593848546966910e+00
1.076251590158790350e+00
4.676770772784948349e-01
4.667110859882086515e-01
6.135417621117085218e-01
3.829918408300727606e-01
3.089325085747987032e-01
1.893802218837663531e+00
2.671103210421279073e+00
1.747293539810925722e+00
1.003480246290564537e+00
1.071099636610597372e+00
1.406620611436665058e+00
1.211812367895618081e+00
6.827711379155516624e-01
2.104013969656080008e-01
6.573333672713488340e-01
7.265627430751919746e-01
1.215354335960000753e+00
1.164156797574833035e+00
7.539324962999671698e-01
3.237443750258535147e-01
1.051135816611349583e+00
9.616206237114965916e-01
3.279303372837603092e-01
6.383355385623872280e-01
7.330026850104331970e-01
1.521199224516749382e-01
3.414542153477668762e-01
2.500070398673415184e-01
4.506112311501055956e-01
4.528652108274400234e-01
3.755859076045453548e-01
2.100793998688459396e-01
3.746199163142591715e-01
3.024925666395574808e-01
4.573731701821088791e-01
2.606329440604895353e-01
2.339071850292384624e-01
1.038899926934391260e+00
1.304869528859853745e+00
4.873189001809805632e-01
2.915446653496474028e-01
5.684621685650199652e-01
1.194424524670466781e+00
1.287803682731464505e+00
9.877023885492235422e-01
4.634911150205880404e-01
5.088927056640386581e-01
3.865338088944554329e-01
3.829918408300727606e-01
8.940012333914637566e-01
9.812624466139823198e-01
5.732921250164508820e-01
2.004194869659841061e-01
1.865736118052154779e-01
1.112262911628931761e-01
3.871778030879795551e-01
5.645982034038752317e-01
3.475721601862460375e-01
2.142653621267527342e-01
2.429231037385761738e-01
1.128362766467034817e-01
3.701119569595903158e-01
9.377928385511040688e-01
1.323867357568815351e+00
1.190882556606084108e+00
8.212298895232379436e-01
7.362226559780538082e-01
8.315337966196238995e-01
7.777602814603596926e-01
2.139433650299906731e-01
8.408717124257236719e-01
1.486797888530418277e+00
2.159127826569601893e+00
2.201631443342193961e+00
1.732481673359870911e+00
4.715410424396395683e-01
1.064981691772118211e+00
1.308089499827474356e+00
2.847827263176441193e-01
4.863529088906943798e-01
1.398840327747166157e-01
2.719028424471616745e-01
1.041475903708487749e+00
1.266551874345168471e+00
1.101689360802993178e+00
1.168342759832739830e+00
9.423007979057729244e-01
5.993738898541778326e-01
1.898954172385856509e+00
2.723910734290257096e+00
2.107286293990910053e+00
1.216320327250286937e+00
6.203037011437118053e-01
5.053507375996559858e-01
4.853869176004081964e-01
2.139433650299906731e-01
2.229592837393283844e-01
5.607342382427304983e-01
6.582993585616350174e-01
4.567291759885847569e-01
4.853869176004081964e-01
3.147284563165158033e-01
3.150504534132778645e-01
4.380533443763852119e-01
3.649600034113973379e-01
5.069607230834662914e-01
7.310707024298608303e-01
8.730714221019297838e-01
9.674165714532136917e-01
5.488203456625342369e-01
2.113673882558941841e-01
1.778796901926398277e-01
1.614578382577747107e-01
4.203435040544718504e-01
2.487190514802932739e-01
4.737950221169739962e-01
8.466676601674407721e-01
1.004768234677612782e+00
5.626662208233028650e-01
2.570909759961068630e-01
8.408717124257236719e-01
6.325395908206701279e-01
1.543739021290093660e-01
6.367255530785769224e-01
7.381546385586261749e-01
3.826698437333106995e-01
1.073997610481455922e+00
1.367336965631693602e+00
1.735701644327491522e+00
1.258179949829354882e+00
2.854267205111682415e-01
6.595873469486832619e-01
9.365048501640558243e-01
1.042119897902011871e+00
1.568263154011219740e+00
1.051457813708111644e+00
2.735128279309719801e-01
6.863131059799343348e-01
6.718232366256415844e-01
5.037407521158456802e-01
1.704737569671124220e-01
1.173442360013723373e-01
3.794498727656900883e-01
1.055321778869256377e+00
1.473918004659935832e+00
1.050491822417825460e+00
5.140446592122316360e-01
1.724057395476847887e-01
3.208464011549949646e-01
5.388384356629103422e-01
8.933572391979396343e-01
1.092351444996893406e+00
1.095571415964514017e+00
8.102819882333278656e-01
2.480750572867691517e-01
1.273261460009962320e-01
1.057523405179381371e-01
1.859296176116913557e-01
2.496850427705794573e-01
1.176662330981343985e-01
2.438890950288623571e-01
4.654230976011604071e-01
5.864940059836953878e-01
4.808789582457393408e-01
2.020294724497944117e-01
2.925106566399335861e-01
2.297212227713316679e-01
4.245294663123786449e-01
9.944643275812268257e-01
4.657450946979224682e-01
4.596271498594433069e-01
8.531076021026819944e-01
1.584363008849322796e+00
9.049491346813738346e-01
3.272863430902361870e-01
8.521416108123958111e-01
6.869571001734584570e-01
6.760091988835483789e-01
1.067235671449452639e+00
1.200864466605708003e+00
1.282007734989747405e+00
1.260111932409927249e+00
5.877819943707436323e-01
2.451770834159106016e-01
1.215301982592791319e-01
7.726083279121667147e-01
1.493881824659183621e+00
1.522217569174245000e+00
1.541215397883206606e+00
2.008111188188195229e+00
1.760495420778170228e+00
8.437696862965822220e-01
5.050287405028939247e-01
1.065947683062404394e+00
9.835164262913167477e-01
3.169824359938502312e-01
5.510743253398686647e-01
1.013462156290188432e+00
7.916061566211283207e-01
4.605931411497294903e-01
1.501879398711025715e-01
1.060473732417449355e+00
1.827148819807916880e+00
2.254760964307934046e+00
2.652105381712317467e+00
2.605415802681818604e+00
1.884786300128325820e+00
1.075607595965266228e+00
4.699310569558292627e-01
1.074963601771742105e+00
1.310343479504808784e+00
1.320003392407670617e+00
1.458140146918594837e+00
1.381826834985986352e+00
1.430448396597057581e+00
2.056410752702504396e+00
2.487886862363666296e+00
2.425419425591826439e+00
2.001671246252954006e+00
1.651982399169355631e+00
1.138075032737106085e+00
3.942617392167448997e-01
8.592255469411611557e-01
1.020546092418953776e+00
7.928941450081765652e-01
8.473116543609648943e-01
5.974419072736054659e-01
5.076047172769904137e-01
1.460394126595929265e+00
1.177680675638839602e+00
3.659259947016835213e-01
1.105822969693690538e-01
1.926915566436946392e-01
1.057523405179381371e-01
4.222754866350442171e-01
1.041797900805249810e+00
1.082691532094031572e+00
1.020546092418953776e+00
7.175468243658542633e-01
7.346126704942435026e-01
4.837769321165978909e-01
1.698297627735882998e-01
9.963439567945897579e-02
1.212082011625170708e-01
1.431040037423372269e-01
2.274672430939972401e-01
6.447754804976284504e-01
9.928543420974165201e-01
1.522539566271007061e+00
2.016483112704008818e+00
1.733447664650157094e+00
1.368946951115503907e+00
6.232016750145703554e-01
2.203833069652318954e-01
8.276698314584791660e-01
1.172206724993884563e+00
1.778849255293607712e+00
1.855484564322978258e+00
8.869172972626984119e-01
1.485779543872922659e-01
5.092147027608007193e-01
1.946235392242670059e-01
7.722863308154046535e-01
1.605936814332380891e+00
3.047517816536128521e+00
3.240072080399841070e+00
2.335582235595211387e+00
1.481645934982225299e+00
4.480352543760091066e-01
2.570909759961068630e-01
7.941821333952248096e-01
1.020546092418953776e+00
1.167698765639215708e+00
1.071099636610597372e+00
6.917870566248893738e-01
4.921488566324114799e-01
7.114288795273751020e-01
6.344715734012424946e-01
1.971995159983634949e-01
1.138022679369896650e-01
4.348333734087646008e-01
5.819860466290265322e-01
9.278109285514801741e-01
6.396235269494354725e-01
1.859296176116913557e-01
5.198406069539487362e-01
3.826698437333106995e-01
5.497863369528204203e-01
4.873189001809805632e-01
1.946235392242670059e-01
4.799129669554531574e-01
1.014106150483712554e+00
1.224692251766100526e+00
1.090741459513083100e+00
6.985489956568926573e-01
1.595258556772023439e-01
6.045258434023708105e-01
1.002192257903516293e+00
4.235634750220924616e-01
5.047067434061318636e-01
1.050491822417825460e+00
7.333246821071952581e-01
2.651409034151583910e-01
4.651011005043983459e-01
5.584802585653960705e-01
1.675757830962538719e-01
4.348333734087646008e-01
1.070777639513835311e+00
9.645185975823551416e-01
3.185924214776605368e-01
6.170837301760911942e-01
7.497465340420603752e-01
5.140446592122316360e-01
5.198406069539487362e-01
8.495656340382993221e-01
1.427228425629436970e+00
1.465546080144122243e+00
3.820258495397865772e-01
3.031365608330816031e-01
2.863927118014544249e-01
2.950866334140300751e-01
4.200215069577097893e-01
5.778000843711197376e-01
1.000260275322943926e+00
1.094605424674227834e+00
2.673948830924928188e-01
7.819462437182664871e-01
6.679592714644968510e-01
6.512154224328696728e-01
4.573731701821088791e-01
4.219534895382821560e-01
1.649998063221573830e-01
6.367255530785769224e-01
1.219540298217907548e+00
7.616604266222566366e-01
4.277494372799992561e-01
4.309694082476198673e-01
5.040627492126077414e-01
3.981257043778896332e-01
3.314723053481429815e-01
4.805569611489772797e-01
3.424202066380530596e-01
5.987298956606537104e-01
1.038899926934391260e+00
1.587582979816943407e+00
1.963675588835030794e+00
1.548621331108734012e+00
6.080678114667534828e-01
1.685417743865400553e-01
1.027630028547719121e+00
1.837130729807540774e+00
1.505473720142617822e+00
4.432052979245781898e-01
7.648803975898772478e-01
1.068845656933262944e+00
1.071421633707359433e+00
5.687841656617820263e-01
6.686032656580209732e-01
4.261394517961889505e-01
1.060743376147001982e-01
1.431040037423372269e-01
5.423804037272930145e-01
9.538926933892071247e-01
1.262043914990499616e+00
1.071421633707359433e+00
9.429447920992970467e-01
1.001226266613230109e+00
6.235236721113324165e-01
4.576951672788709402e-01
1.322257372085005045e+00
1.609800779493525624e+00
1.101367363706231117e+00
3.846018263138830662e-01
1.527639166451990604e-01
2.062154347077012062e-01
5.668521830812096596e-01
5.121126766316592693e-01
1.746597192250192165e-01
1.975215130951255560e-01
2.335851879324764013e-01
6.090338027570396662e-01
4.477132572792470455e-01
3.266423488967120647e-01
8.727494250051677227e-01
1.035679955966770649e+00
8.106039853300899267e-01
2.345511792227625847e-01
1.205642069689929485e-01
5.903579711448401213e-01
5.832740350160747766e-01
3.852458205074071884e-01
9.113890766166150570e-01
9.345728675834834576e-01
4.499672369565814734e-01
2.606329440604895353e-01
9.187950098421424627e-01
8.663094830699265003e-01
7.056329317856580019e-01
6.367255530785769224e-01
5.285345285665243864e-01
6.434874921105802059e-01
2.348731763195246458e-01
2.110453911591321230e-01
5.884259885642677546e-01
4.593051527626812458e-01
1.891495885793119669e-01
6.122537737246602774e-01
1.019902098225429654e+00
1.487119885627180338e+00
1.264297894667834044e+00
1.268805854022502899e+00
7.236647692043334246e-01
2.419571124482899904e-01
1.975215130951255560e-01
9.300649082288146019e-01
1.653592384653165936e+00
1.257857952732592821e+00
1.243690080475062132e+00
1.856450555613264441e+00
2.092474427539855242e+00
1.315173435956239700e+00
3.704339540563523769e-01
3.598080498632043600e-01
3.179484272841364145e-01
9.059151259716600180e-01
7.426625979132950306e-01
8.054520317818969488e-01
2.541982374619692564e+00
3.443252248456701636e+00
3.050737787503749132e+00
3.011776138795539737e+00
2.942224765894934535e+00
2.309822467854246497e+00
7.571524672675877810e-01
7.748623075895011425e-01
1.706077911425381899e+00
2.134012053022161126e+00
1.317105418536812067e+00
5.948659304995089769e-01
2.648189063183963299e-01
3.762299017980694771e-01
9.799744582269340754e-01
1.190238562412559986e+00
8.189759098459035158e-01
5.494643398560583591e-01
1.775576930958777666e-01
1.072065627900883555e+00
1.607224802719429135e+00
1.292955636279657483e+00
1.480679943691939116e+00
1.353813087567687035e+00
6.492834398522973061e-01
1.479339601937681437e-01
3.247103663161396980e-01
4.686430685687810183e-01
1.559838876128196716e-01
3.617400324437767267e-01
1.469679689034819603e-01
1.772356959991157055e-01
2.664288918022066355e-01
1.575938730966299772e-01
4.982668014708906412e-01
3.398442298639565706e-01
1.046949854353442788e+00
2.112438247539103031e+00
1.935661841416731477e+00
1.460072129499167204e+00
6.818051466252654791e-01
1.717617453541606665e-01
4.151915505062788725e-01
5.468883630819618702e-01
6.708572453353554010e-01
6.676372743677347898e-01
7.690663598477840424e-01
1.068523659836500883e+00
2.027431013993918896e+00
1.922137963352724910e+00
1.289735665312036872e+00
7.974021043628454208e-01
3.243883692193776369e-01
4.638131121173501015e-01
1.865736118052154779e-01
1.666097918059676886e-01
2.596669527702033520e-01
8.379737385548651218e-01
1.463292100466787815e+00
1.309055491117760539e+00
8.865953001659363508e-01
7.719643337186425924e-01
7.874201943632215261e-01
2.715808453503996134e-01
2.464650718029588461e-01
5.839180292095988989e-01
8.176879214588552713e-01
5.343304763082414865e-01
1.775576930958777666e-01
1.878616001922637224e-01
3.456401776056736708e-01
1.282921372912824154e-01
1.836756379343569279e-01
3.749419134110212326e-01
2.921886595431715250e-01
2.426011066418141127e-01
5.778000843711197376e-01
6.415555095300078392e-01
7.951481246855109930e-01
7.304267082363367081e-01
2.883246943820267916e-01
4.087516085710376501e-01
9.297429111320525408e-01
9.976842985488474369e-01
2.590229585766792297e-01
9.068811172619462013e-01
9.922103479038923979e-01
8.173659243620932102e-01
5.559042817912995815e-01
7.790482698474079370e-01
1.149344931123778224e+00
1.193458533380180597e+00
9.622646179050207138e-01
9.072031143587082624e-01
8.550395846832543612e-01
3.997356898616999388e-01
9.236249662935733795e-01
1.381182840792462230e+00
1.265907880151644349e+00
4.783029814716428518e-01
5.462443688884377480e-01
2.744788192212581635e-01
9.793304640334099531e-01
1.539605412399396300e+00
1.489695862401276827e+00
1.110383282415568829e+00
6.618413266260176897e-01
3.559440847020596266e-01
1.334440908394753933e-01
2.609549411572515965e-01
6.705352482385933399e-01
7.433065921068191528e-01
3.475721601862460375e-01
2.429231037385761738e-01
7.172248272690922022e-01
7.761502959765493870e-01
4.338673821184784174e-01
1.331220937427133322e-01
9.995639277622103691e-02
1.034983608406037092e-01
1.356980705168098211e-01
7.629484150093048811e-01
1.381182840792462230e+00
1.074641604674980044e+00
3.681799743790179491e-01
3.617400324437767267e-01
2.947646363172680140e-01
2.799527698662132025e-01
6.863131059799343348e-01
5.452783775981515646e-01
3.272863430902361870e-01
4.705750511493533850e-01
9.590446469374001026e-01
1.450090219499543309e+00
1.126483137253671885e+00
3.208464011549949646e-01
3.131184708327054977e-01
3.002385869622230530e-01
6.380135414656251669e-01
1.447836239822208881e+00
8.611575295217335224e-01
5.607342382427304983e-01
1.035357958870008588e+00
3.208464011549949646e-01
3.047465463168919086e-01
2.757668076083064079e-01
6.447754804976284504e-01
1.071743630804121494e+00
2.139808000763878226e+00
2.707166885258629918e+00
2.484344894299283624e+00
1.371200930792838335e+00
2.966966188978403807e-01
2.229592837393283844e-01
5.707161482423543930e-01
8.485996427480131388e-01
7.094968969468027353e-01
4.509332282468676567e-01
3.572320730891078711e-01
2.841387321241199970e-01
6.570113701745867729e-01
5.778000843711197376e-01
3.105424940586090088e-01
4.940808392129838467e-01
1.560213226592168212e+00
2.141095989150926471e+00
1.878024361096322536e+00
1.177036681445315480e+00
2.042834521271288395e-01
1.047271851450204849e+00
1.780459240777418017e+00
1.564399188850075006e+00
6.615193295292556286e-01
3.208464011549949646e-01
4.931148479226976633e-01
1.537299079354852438e-01
6.289976227562874556e-01
7.639144062995910645e-01
6.599093440454453230e-01
3.263203517999500036e-01
1.163782447110861540e-01
4.506112311501055956e-01
7.600504411384463310e-01
9.245909575838595629e-01
6.537913992069661617e-01
1.279701401945203543e-01
7.078869114629924297e-01
1.261077923700213432e+00
1.351559107890352607e+00
8.025540579110383987e-01
2.190953185781836510e-01
4.963348188903182745e-01
5.037407521158456802e-01
2.963746218010783195e-01
1.775576930958777666e-01
5.977639043703675270e-01
8.302458082325756550e-01
4.132595679257065058e-01
2.232812808360904455e-01
3.961937217973172665e-01
5.562262788880616426e-01
3.981257043778896332e-01
3.005605840589851141e-01
5.555822846945375204e-01
8.740374133922159672e-01
1.097825395641848445e+00
1.565365180140361190e+00
1.566009174333885312e+00
9.625866150017827749e-01
2.245692692231386900e-01
9.512643632479012012e-02
2.310092111583799124e-01
1.943015421275049448e-01
6.917870566248893738e-01
1.051779810804873705e+00
1.884464303031563759e+00
2.095050404313951731e+00
6.454194746911525726e-01
1.237572135636582971e+00
2.171041719149798155e+00
2.414471524301916361e+00
2.056088755605742335e+00
1.268805854022502899e+00
8.028760550078004599e-01
5.069607230834662914e-01
3.520801195409148932e-01
1.134802708402276039e-01
6.669932801742106676e-01
1.604326828848570585e+00
1.717025812715291977e+00
1.320647386601194739e+00
7.774382843635976315e-01
2.252132634166628122e-01
1.257161605171859264e-01
1.965555218048393726e-01
1.611358411610126495e-01
1.057523405179381371e-01
1.598478527739644051e-01
3.221343895420432091e-01
4.950468305032700300e-01
3.553000905085355043e-01
1.092943085823208094e-01
1.318341053556650877e-01
1.147682592272758484e-01
3.446741863153874874e-01
2.780207872856408358e-01
2.706148540601134300e-01
2.844607292208820581e-01
4.886068885680288076e-01
1.788456814829260111e-01
6.045258434023708105e-01
6.219136866275221109e-01
4.280714343767613173e-01
2.210273011587560177e-01
2.902566769625991583e-01
1.662877947092056274e-01
2.084694143850356340e-01
3.836358350235968828e-01
8.218738837167620659e-01
1.448158236918970942e+00
1.189272571122273803e+00
7.146488504949957132e-01
4.390193356666713953e-01
6.093557998538017273e-01
1.495491810142993927e+00
2.356190049787983298e+00
2.812459935899823904e+00
2.565488162683323026e+00
1.232742179185152054e+00
8.151119446847587824e-01
7.558644788805395365e-01
5.542942963074892759e-01
9.664505801629275084e-01
4.209874982479959726e-01
4.609151382464915514e-01
3.137624650262296200e-01
1.120365192415192723e+00
2.077340563992038369e+00
1.915698021417483687e+00
1.763393394649028778e+00
1.149666928220540285e+00
4.821669466327875853e-01
1.662877947092056274e-01
3.018485724460333586e-01
4.087516085710376501e-01
1.061761720804497600e+00
1.203762440476566553e+00
9.175070214550942183e-01
5.790880727581679821e-01
3.156944476068019867e-01
3.015265753492712975e-01
3.098984998650848866e-01
2.213492982555180788e-01
1.067183318082243204e-01
3.382342443801462650e-01
9.036611462943255901e-01
1.287159688537940383e+00
8.521416108123958111e-01
2.583789643831551075e-01
3.211683982517570257e-01
6.431654950138181448e-01
7.755063017830252647e-01
3.041025521233677864e-01
3.746199163142591715e-01
3.327602937351912260e-01
1.373080560006201267e-01
3.379122472833842039e-01
3.169824359938502312e-01
1.653218034189194441e-01
2.393811356741935015e-01
4.042436492163687944e-01
7.845222204923629761e-01
7.507125253323465586e-01
6.950070275925099850e-01
7.552204846870154142e-01
7.375106443651020527e-01
2.097574027720838785e-01
7.722863308154046535e-01
1.019580101128667593e+00
4.754050076007843018e-01
2.741568221244961023e-01
7.239867663010954857e-01
7.281727285590022802e-01
2.158753476105630398e-01
9.055931288748979568e-01
8.276698314584791660e-01
3.144064592197537422e-01
6.808391553349792957e-01
1.243046086281538010e+00
1.263331903377547860e+00
1.086233500158414245e+00
5.723261337261646986e-01
1.807776640634983778e-01
2.596669527702033520e-01
7.162588359788060188e-01
1.204406434670090675e+00
1.245944060152396560e+00
8.807993524242192507e-01
2.773767930921167135e-01
4.824889437295496464e-01
1.304547531763091683e+00
1.367336965631693602e+00
8.498876311350613832e-01
1.192814539186656475e+00
1.318715404020622373e+00
9.371488443575799465e-01
4.193775127641856670e-01
3.263203517999500036e-01
1.930135537404567003e-01
5.932559450156986713e-01
4.696090598590672016e-01
2.126553766429424286e-01
5.414144124370068312e-01
7.307487053330987692e-01
2.709368511568754911e-01
3.150504534132778645e-01
4.654230976011604071e-01
1.659657976124435663e-01
5.014867724385112524e-01
8.163999330718070269e-01
9.271669343579560518e-01
7.867762001696974039e-01
3.546560963150113821e-01
1.604918469674885273e-01
6.418775066267699003e-01
1.202152454992756248e+00
1.131635090801864862e+00
7.433065921068191528e-01
6.061358288861811161e-01
4.937588421162217855e-01
4.544751963112503290e-01
4.596271498594433069e-01
5.745801134034991264e-01
6.215916895307600498e-01
4.834549350198358297e-01
2.690048685763031244e-01
3.144064592197537422e-01
5.565482759848237038e-01
6.479954514652490616e-01
5.030967579223215580e-01
2.648189063183963299e-01
1.968775189016014338e-01
3.881437943782657385e-01
1.048559839837253094e+00
1.398570684017613530e+00
9.268449372611939907e-01
4.969788130838423967e-01
1.517979253549128771e-01
6.550793875940144062e-01
6.663492859806865454e-01
4.483572514727711678e-01
4.634911150205880404e-01
2.017074753530323505e-01
3.366242588963359594e-01
3.063565318007022142e-01
1.050813819514587522e+00
1.542503386270254850e+00
1.689334062393754721e+00
1.542503386270254850e+00
1.105875323060899973e+00
2.622429295442998409e-01
4.754050076007843018e-01
4.007016811519861221e-01
4.750830105040222406e-01
1.141242650337517262e-01
2.570909759961068630e-01
2.593449556734412909e-01
1.260381576139479876e-01
4.061756317969411612e-01
6.093557998538017273e-01
2.828507437370717525e-01
8.279918285552412271e-01
9.709585395175963640e-01
3.900757769588381052e-01
4.200215069577097893e-01
1.312275462085381150e+00
2.167177753988653421e+00
2.260234914952889085e+00
1.283295723376795650e+00
3.269643459934741259e-01
4.048876434098929167e-01
1.018936106935143471e+00
1.587904976913705468e+00
2.219341283664107323e+00
1.945321754319593310e+00
1.070133645320311189e+00
1.946235392242670059e-01
1.952675334177911282e-01
3.089325085747987032e-01
2.287552314810454845e-01
2.612769382540136576e-01
4.338673821184784174e-01
5.810200553387403488e-01
5.047067434061318636e-01
2.615989353507757187e-01
1.717617453541606665e-01
2.052494434174150229e-01
3.945837363135069609e-01
3.031365608330816031e-01
1.279701401945203543e-01
3.012045782525092363e-01
3.366242588963359594e-01
6.145077534019947052e-01
4.770149930845946074e-01
3.710779482498764992e-01
6.431654950138181448e-01
2.641749121248722076e-01
8.840193233918398619e-01
1.250452019507065415e+00
6.950070275925099850e-01
3.868558059912174940e-01
1.378928861115127802e+00
1.883498311741277575e+00
1.357677052728831768e+00
1.299073581118136644e+00
1.163512803381308913e+00
2.654629005119204521e-01
9.416568037122488022e-01
1.071743630804121494e+00
2.152313534170389175e-01
8.956112188752740622e-01
8.653434917796403170e-01
5.629882179200649261e-01
1.505099369678646326e-01
7.181908185593783855e-01
1.125517145963385701e+00
1.237572135636582971e+00
5.150106505025178194e-01
6.937190392054617405e-01
8.798333611339330673e-01
2.397031327709555626e-01
5.938999392092227936e-01
1.782016872894018888e-01
1.289361314848065376e-01
1.827096466440707445e-01
1.118702853564172983e-01
2.661068947054445744e-01
3.504701340571045876e-01
2.268232489004731178e-01
1.691857685800641775e-01
2.889686885755509138e-01
3.894317827653139830e-01
1.698297627735882998e-01
2.709368511568754911e-01
8.618015237152576447e-01
1.156428867252543569e+00
1.044373877579346299e+00
6.818051466252654791e-01
2.483970543835312128e-01
6.901770711410790682e-01
3.974817101843655109e-01
1.939795450307428837e-01
6.186937156599014997e-01
8.051300346851348877e-01
7.825902379117906094e-01
8.753254017792642117e-01
1.289091671118512750e+00
8.769353872630745173e-01
2.805967640597373247e-01
4.911828653421252966e-01
1.013784153386950493e+00
1.206982411444187164e+00
6.177277243696153164e-01
1.630678237415850163e-01
1.392400385811924934e-01
2.210273011587560177e-01
1.353760734200477600e-01
6.914650595281273127e-01
1.428194416919723153e+00
1.172528722090646625e+00
3.350142734125256538e-01
1.587260982720181346e+00
2.047072836896404624e+00
1.158038852736353874e+00
2.116893853526562452e-01
7.790482698474079370e-01
1.070455642417073250e+00
1.228878214024007320e+00
5.072827201802283525e-01
2.293992256745696068e-01
3.781618843786418438e-01
7.143268533982336521e-01
8.457016688771545887e-01
7.410526124294847250e-01
1.955895305145531893e-01
6.138637592084705830e-01
6.521814137231558561e-01
2.107233940623700619e-01
4.225974837318062782e-01
2.725468366406857967e-01
1.205642069689929485e-01
2.979846072848886251e-01
8.553615817800164223e-01
1.293921627569943666e+00
9.039831433910876513e-01
8.421597008127719164e-01
8.708174424245953560e-01
6.885670856572687626e-01
6.476734543684870005e-01
4.229194808285683393e-01
1.289361314848065376e-01
6.331835850141942501e-01
1.058219752740114927e+00
8.598695411346852779e-01
5.475323572754859924e-01
2.709368511568754911e-01
3.111864882521331310e-01
1.556618905160576105e-01
6.827711379155516624e-01
9.487407398410141468e-01
1.067235671449452639e+00
3.662479917984455824e-01
2.500070398673415184e-01
5.298225169535726309e-01
7.111068824306130409e-01
8.324997879099100828e-01
7.494245369452983141e-01
4.222754866350442171e-01
4.560851817950606346e-01
1.067557668546214700e+00
1.070455642417073250e+00
2.374491530936211348e-01
2.641749121248722076e-01
4.824889437295496464e-01
8.692074569407850504e-01
7.346126704942435026e-01
1.836756379343569279e-01
3.765518988948315382e-01
7.201228011399507523e-01
1.228878214024007320e+00
1.797525086905807257e+00
1.137753035640344024e+00
4.300034169573336840e-01
1.172850719187408686e+00
9.287769198417663574e-01
3.913637653458863497e-01
5.095366998575627804e-01
7.301047111395746469e-01
6.898550740443170071e-01
3.340482821222394705e-01
1.749817163217812777e-01
1.952675334177911282e-01
1.189542214851826429e-01
4.093956027645617723e-01
4.348333734087646008e-01
3.784838814754039049e-01
1.566278818063437939e-01
1.150902563240379095e-01
1.769136989023536444e-01
1.324780995491892099e-01
2.947646363172680140e-01
2.158753476105630398e-01
1.205642069689929485e-01
3.227783837355673313e-01
4.309694082476198673e-01
3.707559511531144381e-01
4.876408972777426243e-01
5.655641946941614151e-01
4.490012456662952900e-01
1.369860589038580656e-01
4.631691179238259792e-01
4.689650656655430794e-01
1.923695595469325781e-01
2.973406130913645029e-01
3.173044330906122923e-01
3.688239685725420713e-01
8.067400201689451933e-01
5.600902440492063761e-01
1.479339601937681437e-01
1.382740472909063101e-01
4.641351092141121626e-01
8.022320608142763376e-01
6.946850304957479239e-01
3.028145637363195419e-01
3.356582676060497761e-01
8.772573843598365784e-01
7.581184585578739643e-01
3.346922763157635927e-01
4.232414779253304005e-01
4.277494372799992561e-01
9.799744582269340754e-01
4.390193356666713953e-01
6.299636140465736389e-01
1.066269680159166455e+00
1.291667647892609239e+00
3.846018263138830662e-01
1.989113359479233623e+00
2.657257335260510445e+00
2.162991791730746627e+00
1.064015700481832027e+00
2.622429295442998409e-01
4.377313472796231508e-01
6.186937156599014997e-01
6.856691117864102125e-01
6.167617330793291330e-01
7.339686763007193804e-01
1.358321046922355890e+00
1.287159688537940383e+00
8.263818430714309216e-01
7.059549288824200630e-01
6.547573904972523451e-01
3.272863430902361870e-01
6.154737446922808886e-01
1.344153174664825201e+00
1.644898463040590286e+00
1.618816698202863336e+00
1.314851438859477639e+00
1.640712500782683492e+00
1.886396285612136126e+00
1.907004099804908037e+00
1.105231328867375851e+00
4.264614488929510117e-01
1.914035682566463947e-01
7.310707024298608303e-01
8.927132450044155121e-01
6.212696924339979887e-01
2.799527698662132025e-01
2.841387321241199970e-01
6.289976227562874556e-01
6.924310508184134960e-01
5.674961772747337818e-01
7.053109346888959408e-01
3.688239685725420713e-01
4.296814198605716228e-01
2.870367059949785471e-01
3.871778030879795551e-01
7.313926995266228914e-01
3.961937217973172665e-01
1.018883753567934036e-01
4.554411876015365124e-01
7.407306153327226639e-01
4.493232427630573511e-01
3.662479917984455824e-01
6.946850304957479239e-01
2.902566769625991583e-01
3.713999453466385603e-01
4.422393066342920065e-01
4.190555156674236059e-01
4.206655011512339115e-01
1.666097918059676886e-01
3.627060237340629101e-01
7.439505863003432751e-01
1.068523659836500883e+00
1.725075740134343505e+00
1.809438979486003518e+00
1.599496872397139668e+00
1.000260275322943926e+00
2.912226682528853416e-01
1.572718759998679161e-01
1.160562476143240929e-01
3.021705695427954197e-01
1.067557668546214700e+00
1.516421621432527900e+00
1.764359385939314961e+00
1.950151710771024227e+00
1.407264605630189180e+00
1.199254481121897697e+00
8.743594104889780283e-01
1.579158701933920383e-01
2.493630456738173962e-01
6.737552192062139511e-01
1.147090951446443796e+00
8.154339417815208435e-01
3.932957479264587164e-01
6.782631785608828068e-01
1.005412228871136904e+00
1.016038133064284921e+00
6.743992133997380733e-01
1.633898208383470774e-01
3.524021166376769543e-01
3.733319279272109270e-01
3.459621747024357319e-01
1.939795450307428837e-01
3.920077595394104719e-01
4.512552253436297178e-01
7.652023946866393089e-01
8.907812624238431454e-01
5.385164385661482811e-01
4.989107956644147635e-01
5.642762063071131706e-01
2.838167350273579359e-01
1.447139892261475325e-01
9.544843342155218124e-02
1.782016872894018888e-01
5.604122411459684372e-01
1.007666208548471332e+00
9.963963101617991924e-01
3.926517537329345942e-01
4.834549350198358297e-01
1.056609767256304622e+00
1.183798620477318764e+00
6.779411814641207457e-01
3.105424940586090088e-01
6.421995037235319614e-01
2.168413389008492231e-01
1.008954196935519576e+00
1.090097465319558978e+00
5.278905343730002642e-01
2.973406130913645029e-01
5.256365546956658363e-01
2.776987901888787746e-01
5.011647753417491913e-01
8.341097733937203884e-01
4.728290308266878128e-01
1.405280269682407379e-01
5.584802585653960705e-01
9.023731579072773457e-01
1.182188634993508458e+00
1.350593116600066423e+00
1.070777639513835311e+00
3.272863430902361870e-01
8.875612914562225342e-01
1.197966492734849453e+00
2.673948830924928188e-01
1.028274022741243243e+00
1.266873871441930532e+00
1.069167654030025005e+00
8.205858953297138214e-01
1.917255653534084558e-01
5.430243979208171368e-01
8.080280085559934378e-01
6.644173034001141787e-01
6.003398811444640160e-01
7.043449433986097574e-01
5.713601424358785152e-01
6.760091988835483789e-01
9.577566585503518581e-01
8.878832885529845953e-01
3.672139830887317657e-01
7.120728737208992243e-01
1.009276194032281637e+00
2.960526247043162584e-01
1.505099369678646326e-01
8.489216398447751999e-01
2.197123483987525105e+00
1.826182828517630696e+00
1.551197307882830501e+00
1.714449835941195488e+00
1.238538126926869154e+00
3.485381514765322208e-01
1.078505569836124778e+00
1.125195148866623640e+00
1.018936106935143471e+00
9.249129546806216240e-01
9.468087572604417801e-01
8.205858953297138214e-01
6.042038463056087494e-01
5.285345285665243864e-01
4.432052979245781898e-01
3.108644911553710699e-01
6.782631785608828068e-01
1.187340588541701436e+00
1.281363740796223283e+00
8.089939998462796211e-01
2.619209324475377798e-01
1.179612658219411969e+00
1.366692971438169479e+00
1.068201662739738822e+00
1.174138707574456930e+00
1.093639433383941650e+00
2.116893853526562452e-01
7.452385746873915195e-01
8.192979069426655769e-01
2.963746218010783195e-01
2.963746218010783195e-01
6.364035559818148613e-01
1.043729883385822177e+00
1.467478062724694610e+00
1.573415107559412718e+00
1.574381098849698901e+00
1.576957075623795390e+00
8.695294540375471115e-01
5.427024008240550756e-01
7.977241014596074820e-01
4.882848914712667465e-01
2.326191966421902180e-01
1.943015421275049448e-01
6.145077534019947052e-01
1.065303688868880272e+00
9.075251114554703236e-01
6.170837301760911942e-01
5.681401714682579041e-01
4.866749059874564409e-01
1.698297627735882998e-01
3.372682530898600817e-01
7.204447982367128134e-01
1.075607595965266228e+00
9.954303188715130091e-01
1.894715856760740280e-01
5.552602875977754593e-01
1.804556669667363167e-01
5.826300408225506544e-01
3.804158640559762716e-01
3.453181805089116096e-01
3.752639105077832937e-01
3.102204969618469477e-01
5.546162934042513371e-01
3.408102211542427540e-01
1.286141343880444765e-01
5.237045721150934696e-01
1.064015700481832027e+00
1.383436820469796658e+00
1.869330439483746886e+00
1.946609742706641555e+00
1.238538126926869154e+00
4.609151382464915514e-01
3.482161543797701597e-01
7.429845950100570917e-01
9.329628820996731520e-01
4.254954576026648283e-01
2.883246943820267916e-01
4.390193356666713953e-01
8.656654888764023781e-01
1.467156065627932549e+00
1.367336965631693602e+00
6.998369840439409018e-01
2.493630456738173962e-01
8.875612914562225342e-01
1.364760988857597113e+00
3.343702792190015316e-01
1.336103247245773673e+00
1.730227693682536483e+00
9.184730127453804016e-01
7.082089085597544909e-01
1.291023653699085116e+00
1.202474452089518309e+00
8.927132450044155121e-01
5.446343834046274424e-01
2.149093563202768564e-01
3.675359801854938269e-01
5.050287405028939247e-01
1.736937279347330332e-01
1.202422098722308874e-01
1.933355508372187614e-01
5.926119508221745491e-01
5.990518927574157715e-01
2.596669527702033520e-01
6.447754804976284504e-01
6.019498666282743216e-01
3.511141282506287098e-01
2.091134085785597563e-01
3.804158640559762716e-01
4.309694082476198673e-01
3.565880788955837488e-01
6.080678114667534828e-01
4.931148479226976633e-01
2.947646363172680140e-01
2.368051589000970125e-01
1.885055943857878447e-01
3.685019714757800102e-01
7.825902379117906094e-01
1.272025824990123510e+00
9.909223595168441534e-01
1.008632199838757515e+00
7.706763453315943480e-01
7.967581101693212986e-01
2.364239977207034826e+00
2.737112615257501602e+00
2.321414363337680697e+00
1.659066335298120975e+00
5.823080437257885933e-01
4.464252688921988010e-01
3.688239685725420713e-01
4.547971934080123901e-01
9.342508704867213964e-01
2.379695837851613760e+00
2.314008430112153292e+00
1.824894840130582452e+00
1.637814526911824942e+00
3.420982095412909985e-01
1.489051868207752705e+00
1.751479502068832517e+00
2.057698741089552641e+00
1.955947658512741327e+00
1.348983131116256118e+00
6.747212104965001345e-01
2.351951734162867069e-01
1.482559572905302048e-01
1.167002418078482151e-01
6.064578259829431772e-01
1.021834080806002021e+00
8.753254017792642117e-01
6.341495763044804335e-01
1.830316437408328056e-01
6.038818492088466883e-01
6.093557998538017273e-01
2.458210776094347239e-01
3.401662269607186317e-01
2.599889498669654131e-01
1.289361314848065376e-01
1.859296176116913557e-01
1.038203579373657703e-01
1.385960443876683712e-01
3.569100759923458099e-01
5.813420524355024099e-01
5.559042817912995815e-01
2.664288918022066355e-01
1.218521953560411930e-01
2.303652169648557901e-01
5.781220814678817987e-01
5.674961772747337818e-01
3.726879337336868048e-01
3.205244040582329035e-01
3.263203517999500036e-01
4.502892340533435345e-01
4.770149930845946074e-01
1.765917018055915833e-01
6.756872017867863178e-01
9.165410301648080349e-01
4.367653559893369675e-01
5.085707085672765970e-01
1.072065627900883555e+00
1.293277633376419544e+00
1.156428867252543569e+00
1.117145221447572112e+00
6.930750450119376183e-01
3.511141282506287098e-01
1.033103979192674160e+00
1.234674161765724421e+00
1.363794997567310929e+00
6.489614427555352449e-01
5.127566708251833916e-01
1.053067799191921949e+00
1.704789923038333654e+00
1.379250858211889863e+00
6.634513121098279953e-01
2.661068947054445744e-01
2.722248395439237356e-01
1.472899660002440214e-01
4.345113763120025396e-01
5.826300408225506544e-01
1.872176059987396002e-01
1.073623260017484426e-01
4.248514634091407061e-01
5.922899537254124880e-01
6.370475501753389835e-01
4.187335185706615448e-01
1.505099369678646326e-01
1.183102272916585207e-01
2.667508888989686966e-01
3.121524795424193144e-01
1.753037134185433388e-01
3.826698437333106995e-01
5.311105053406208754e-01
4.351553705055266619e-01
3.353362705092877150e-01
3.037805550266057253e-01
3.057125376071780920e-01
3.298623198643326759e-01
4.061756317969411612e-01
5.063167288899421692e-01
6.525034108199179173e-01
2.754448105115443468e-01
1.959115276113152504e-01
2.583789643831551075e-01
8.186539127491414547e-01
9.648405946791172028e-01
6.425215008202940226e-01
2.229592837393283844e-01
7.825902379117906094e-01
8.141459533944725990e-01
1.175748693058267236e+00
2.363595983013510704e+00
2.731960661709308624e+00
2.332040267530828714e+00
1.068201662739738822e+00
4.882848914712667465e-01
1.517065615626052022e+00
1.931153882062062621e+00
1.335137255955487490e+00
5.623442237265408039e-01
1.965555218048393726e-01
4.351553705055266619e-01
1.064659694675356150e+00
1.365726980147883296e+00
1.078183572739362717e+00
4.035996550228446722e-01
2.474310630932450294e-01
4.039216521196067333e-01
2.587009614799171686e-01
2.168413389008492231e-01
1.517979253549128771e-01
2.841387321241199970e-01
5.861720088869333267e-01
7.381546385586261749e-01
2.690048685763031244e-01
6.283536285627633333e-01
7.809802524279803038e-01
4.309694082476198673e-01
3.182704243808984756e-01
3.540121021214872599e-01
3.156944476068019867e-01
1.949455363210290670e-01
1.672537859994918108e-01
2.593449556734412909e-01
2.496850427705794573e-01
1.089723114855587482e-01
1.237841779366135597e-01
4.502892340533435345e-01
6.917870566248893738e-01
4.438492921181023121e-01
1.917255653534084558e-01
1.186322243884205818e-01
4.390193356666713953e-01
9.448767746798694134e-01
1.347373145632445812e+00
1.119077204028144479e+00
3.388782385736703873e-01
3.346922763157635927e-01
5.881039914675056934e-01
6.248116604983806610e-01
5.971199101768434048e-01
5.111466853413730860e-01
1.183102272916585207e-01
3.562660817988216877e-01
1.328000966459512711e-01
3.111864882521331310e-01
2.657848976086825132e-01
3.887877885717898607e-01
2.078254201915115118e-01
4.882848914712667465e-01
6.061358288861811161e-01
4.390193356666713953e-01
1.566278818063437939e-01
9.748225046787410975e-01
1.411450567888095975e+00
1.118111212737858295e+00
2.802747669629752636e-01
1.362185012083500624e+00
1.642644483363255858e+00
1.251740007894113660e+00
1.083657523384317756e+00
2.577349701896309853e-01
5.056727346964180470e-01
7.858102088794112206e-01
8.872392943594604731e-01
1.036001953063532710e+00
1.361219020793214440e+00
1.196356507251039147e+00
7.842002233956009150e-01
3.691459656693041325e-01
1.749817163217812777e-01
5.143666563089936972e-01
1.843196321278810501e-01
1.456799805164337158e-01
8.415157066192477942e-01
1.797847084002569318e+00
1.365082985954359174e+00
2.934766479302197695e-01
7.867762001696974039e-01
8.956112188752740622e-01
7.713203395251184702e-01
7.008029753342270851e-01
3.800938669592142105e-01
2.619209324475377798e-01
1.611358411610126495e-01
4.351553705055266619e-01
7.429845950100570917e-01
2.535490079317241907e-01
1.505099369678646326e-01
2.248912663199007511e-01
8.846633175853639841e-01
9.516387137118726969e-01
2.268232489004731178e-01
3.958717247005552053e-01
2.419571124482899904e-01
1.063963347114622593e-01
3.324382966384291649e-01
3.688239685725420713e-01
3.691459656693041325e-01
2.013854782562702894e-01
1.820656524505466223e-01
1.173442360013723373e-01
3.820258495397865772e-01
3.301843169610947371e-01
6.734332221094518900e-01
9.848044146783649921e-01
7.610164324287325144e-01
8.186539127491414547e-01
8.099599911365658045e-01
1.949455363210290670e-01
2.915446653496474028e-01
5.520403166301548481e-01
5.881039914675056934e-01
6.415555095300078392e-01
7.278507314622402191e-01
1.064337697578594089e+00
1.299717575311660767e+00
1.221794277895241976e+00
2.912226682528853416e-01
8.392617269419133663e-01
8.366857501678168774e-01
3.978037072811275721e-01
1.437479979358613491e-01
1.830316437408328056e-01
1.405280269682407379e-01
2.406691240612417459e-01
1.144462621305137873e-01
1.344100821297615767e-01
1.038203579373657703e-01
1.009223840665072203e-01
1.627458266448229551e-01
1.228181866463273764e-01
1.373080560006201267e-01
3.775178901851177216e-01
3.936177450232207775e-01
4.760490017943084240e-01
4.654230976011604071e-01
7.613384295254945755e-01
7.883861856535077095e-01
4.792689727619290352e-01
3.713999453466385603e-01
1.069167654030025005e+00
1.287159688537940383e+00
6.273876372724771500e-01
5.198406069539487362e-01
6.982269985601305962e-01
2.902566769625991583e-01
6.982269985601305962e-01
1.336103247245773673e+00
1.144192977575585246e+00
2.857487176079303026e-01
5.117906795348972082e-01
1.274279804667457938e+00
1.071421633707359433e+00
5.021307666320353746e-01
8.263818430714309216e-01
1.834554753033444285e+00
1.538317424012348056e+00
8.260598459746688604e-01
3.636720150243490934e-01
1.946235392242670059e-01
4.718630395364016294e-01
5.214505924377590418e-01
1.701517598703503609e-01
1.244281721301376820e-01
6.624853208195418119e-01
9.590446469374001026e-01
1.019258104031905532e+00
5.629882179200649261e-01
1.704737569671124220e-01
1.118702853564172983e-01
2.409911211580038071e-01
5.755461046937853098e-01
3.044245492201298475e-01
3.636720150243490934e-01
3.308283111546188593e-01
3.205244040582329035e-01
6.953290246892720461e-01
6.554013846907764673e-01
9.165410301648080349e-01
8.775793814565986395e-01
7.796922640409320593e-01
4.461032717954367399e-01
3.949057334102690220e-01
9.509947195183485746e-01
1.071099636610597372e+00
1.024088060483336449e+00
6.879230914637446404e-01
2.345511792227625847e-01
3.305063140578567982e-01
2.426011066418141127e-01
2.239252750296145678e-01
3.707559511531144381e-01
6.866351030766963959e-01
4.725070337299257517e-01
3.118304824456572533e-01
8.505316253285855055e-01
7.861322059761732817e-01
6.505714282393455505e-01
1.770477330777794123e+00
1.683860111748799682e+00
1.063693703385069966e+00
3.517581224441528320e-01
1.852856234181672335e-01
9.761104930657893419e-01
1.351881104987114668e+00
1.067557668546214700e+00
1.868956089019775391e-01
4.950468305032700300e-01
5.674961772747337818e-01
3.984477014746516943e-01
4.963348188903182745e-01
6.863131059799343348e-01
2.522610195446759462e-01
4.406293211504817009e-01
5.162986388895660639e-01
3.021705695427954197e-01
1.872176059987396002e-01
5.014867724385112524e-01
7.272067372687160969e-01
4.032776579260826111e-01
2.113673882558941841e-01
2.661068947054445744e-01
1.588818614836782217e-01
1.263601547107100487e-01
1.379520501941442490e-01
2.091134085785597563e-01
7.272067372687160969e-01
9.004411753267049789e-01
1.121331183705478907e+00
9.880243856459856033e-01
1.127771125640720129e+00
9.503507253248244524e-01
1.872176059987396002e-01
7.043449433986097574e-01
1.339001221116632223e+00
1.433668367564678192e+00
1.112959259189665318e+00
7.520005137193948030e-01
1.856076205149292946e-01
1.162868809187784791e+00
1.218896304024383426e+00
4.831329379230737686e-01
1.356980705168098211e-01
4.924708537291735411e-01
8.930352421011775732e-01
1.024732054676860571e+00
8.885272827465087175e-01
7.529665050096809864e-01
8.260598459746688604e-01
7.790482698474079370e-01
2.187733214814215899e-01
8.923912479076534510e-01
1.078505569836124778e+00
3.578760672826319933e-01
2.899346798658370972e-01
4.634911150205880404e-01
5.124346737284213305e-01
2.316532053519040346e-01
1.385960443876683712e-01
5.369064530823379755e-01
9.278109285514801741e-01
9.754664988722652197e-01
8.106039853300899267e-01
5.877819943707436323e-01
8.553615817800164223e-01
1.204084437573328614e+00
1.168664756929501891e+00
6.734332221094518900e-01
3.900757769588381052e-01
3.955497276037931442e-01
1.379520501941442490e-01
5.571922701783478260e-01
1.072709622094407678e+00
1.484543908853083849e+00
1.591124947881326079e+00
1.298429586924612522e+00
4.206655011512339115e-01
3.279303372837603092e-01
7.664903830736875534e-01
6.164397359825670719e-01
4.093956027645617723e-01
1.320647386601194739e+00
1.931797876255586743e+00
1.080115555319935083e+00
5.459223717916756868e-01
