4.879628943745046854e-01
1.717617453541606665e-01
-1.637592294719070196e-01
-3.453655920457094908e-01
1.477781969821080565e+00
2.483970543835312128e-01
2.216712953522801399e-01
-2.300906314048916101e-01
5.809677019715309143e-02
-2.329886052757501602e-01
1.062727712094783783e+00
-1.405702031683176756e+00
8.643775004893541336e-01
9.061847697012126446e-02
-1.067657433450222015e-01
-1.930609652772545815e-01
3.169300826266407967e-02
3.523497632704675198e-02
5.841876729391515255e-02
-9.098788560368120670e-02
-1.772831075359135866e-01
-1.924169710837304592e-01
2.255352605134248734e-01
-6.596347584854811430e-01
8.057740288786590099e-01
4.911828653421252966e-01
1.791676785796880722e-01
-1.563532962463796139e-01
-3.386036530137062073e-01
1.400180669501423836e+00
2.529050137382000685e-01
2.313312082551419735e-01
-2.236506894696503878e-01
6.518070632591843605e-02
-2.230066952761262655e-01
1.075285598868504167e+00
-1.397008110070601106e+00
8.679194685537368059e-01
9.609242761507630348e-02
-9.839381882920861244e-02
-1.901629914063960314e-01
3.040501987561583519e-02
3.716695890761911869e-02
6.131674116477370262e-02
-9.291986818425357342e-02
-1.769611104391515255e-01
-1.937049594707787037e-01
2.197393127717077732e-01
-6.622107352595776320e-01
8.138239562977105379e-01
4.837769321165978909e-01
1.704737569671124220e-01
-1.605392585042864084e-01
-3.450435949489474297e-01
1.185408605961129069e+00
2.477530601900070906e-01
2.236032779328525066e-01
-2.291246401146054268e-01
6.035074987448751926e-02
-2.233286923728883266e-01
1.076895584352314472e+00
-1.401194072328507900e+00
8.659874859731644392e-01
9.802441019564867020e-02
-9.646183624863624573e-02
-1.895189972128719091e-01
3.620096761733293533e-02
4.038692987523972988e-02
6.099474406801164150e-02
-8.841190882958471775e-02
-1.692331801168620586e-01
-1.840450465679168701e-01
2.293992256745696068e-01
-6.551267991308122873e-01
8.289578198455274105e-01
4.915048624388873577e-01
1.794896756764501333e-01
-1.550653078593313694e-01
-3.405356355942785740e-01
1.002514255000278354e+00
2.538710050284862518e-01
2.290772285778075457e-01
-2.217187068890780210e-01
6.389271793887019157e-02
-2.191427301149815321e-01
1.077217581449076533e+00
-1.400550078134983778e+00
8.576155614573508501e-01
9.705841890536248684e-02
-9.839381882920861244e-02
-1.940269565675407648e-01
3.008302277885377407e-02
3.523497632704675198e-02
5.133483116514980793e-02
-9.195387689396739006e-02
-1.737411394715309143e-01
-1.895189972128719091e-01
2.287552314810454845e-01
-6.615667410660535097e-01
8.234838692005723715e-01
4.873189001809805632e-01
1.743377221282571554e-01
-1.550653078593313694e-01
-3.492295572068542242e-01
9.068811172619462013e-01
2.522610195446759462e-01
2.277892401907593012e-01
-2.259046691469848156e-01
6.453671213239431381e-02
-2.175327446311712265e-01
1.080437552416697145e+00
-1.396686112973839045e+00
8.556835788767784834e-01
1.047863492276519537e-01
-9.163187979720532894e-02
-1.856550320517271757e-01
3.620096761733293533e-02
4.135292116552591324e-02
4.875885439105331898e-02
-8.647992624901235104e-02
-1.701991714071482420e-01
-1.875870146322995424e-01
2.413131182547658682e-01
-6.580247730016708374e-01
8.283138256520032883e-01
4.924708537291735411e-01
1.666097918059676886e-01
-1.566752933431416750e-01
-3.563134933356195688e-01
8.608355324249714613e-01
2.490410485770553350e-01
2.226372866425663233e-01
-2.452244949527084827e-01
6.002875277772545815e-02
-2.236506894696503878e-01
1.075607595965266228e+00
-1.394110136199742556e+00
8.411937095224857330e-01
9.770241309888660908e-02
-9.871581592597067356e-02
-1.914509797934442759e-01
3.072701697237789631e-02
3.942093858495354652e-02
3.974293568171560764e-02
-8.905590302310883999e-02
-1.724531510844826698e-01
-1.895189972128719091e-01
2.493630456738173962e-01
-6.580247730016708374e-01
8.315337966196238995e-01
4.918268595356494188e-01
1.582378672901540995e-01
-1.489473630208522081e-01
-3.508395426906645298e-01
8.543955904897302389e-01
2.564469818025827408e-01
2.335851879324764013e-01
-2.490884601138532162e-01
6.711268890649080276e-02
-2.156007620505988598e-01
1.083979520481079817e+00
-1.356758472975343466e+00
8.434476891998201609e-01
1.018883753567934036e-01
-9.324186528101563454e-02
-1.898409943096339703e-01
3.748895600438117981e-02
4.586088052019476891e-02
3.974293568171560764e-02
-8.808991173282265663e-02
-1.727751481812447309e-01
-1.982129188254475594e-01
2.525830166414380074e-01
-6.618887381628155708e-01
8.231618721038103104e-01
4.860309117939323187e-01
1.395620356779545546e-01
-1.573192875366657972e-01
-3.614654468838125467e-01
8.392617269419133663e-01
2.522610195446759462e-01
2.268232489004731178e-01
-2.610023526940494776e-01
6.131674116477370262e-02
-2.201087214052677155e-01
1.077217581449076533e+00
-1.325524754589423537e+00
8.402277182321995497e-01
1.009223840665072203e-01
-9.227587399072945118e-02
-1.875870146322995424e-01
3.330299374647438526e-02
5.262281955219805241e-02
4.231891245581209660e-02
-8.358195237815380096e-02
-1.647252207621932030e-01
-2.020768839865922928e-01
2.603109469637274742e-01
-6.522288252599537373e-01
8.318557937163859606e-01
4.931148479226976633e-01
1.414940182585269213e-01
-1.508793456014245749e-01
-3.572794846259057522e-01
8.421597008127719164e-01
2.551589934155344963e-01
2.258572576101869345e-01
-2.632563323713839054e-01
6.485870922915637493e-02
-2.197867243085056543e-01
1.077539578545838594e+00
-1.307814914267510176e+00
8.344317704904824495e-01
9.673642180860042572e-02
-9.968180721625685692e-02
-1.943489536643028259e-01
1.237318245694041252e-02
4.908085148781538010e-02
3.394698793999850750e-02
-9.066588850691914558e-02
-1.730971452780067921e-01
-2.152787649538367987e-01
2.538710050284862518e-01
-6.589907642919570208e-01
8.257378488779067993e-01
4.869969030842185020e-01
1.302241198718547821e-01
-1.531333252787590027e-01
-3.608214526902884245e-01
8.402277182321995497e-01
2.483970543835312128e-01
2.239252750296145678e-01
-2.632563323713839054e-01
6.518070632591843605e-02
-2.178547417279332876e-01
1.079471561126410961e+00
-1.293647042009979486e+00
8.428036950062960386e-01
1.080063201952725649e-01
-9.710583044216036797e-02
-1.882310088258236647e-01
8.187220199033617973e-03
5.423280503600835800e-02
4.103092406876385212e-02
-8.551393495872616768e-02
-1.679451917298138142e-01
-2.133467823732644320e-01
2.609549411572515965e-01
-6.570587817113846540e-01
8.270258372649550438e-01
4.927928508259356022e-01
1.282921372912824154e-01
-1.540993165690451860e-01
-3.640414236579090357e-01
8.370077472645789385e-01
2.342291821260005236e-01
2.168413389008492231e-01
-2.700182714033871889e-01
6.002875277772545815e-02
-2.146347707603126764e-01
1.071099636610597372e+00
-1.297189010074362159e+00
8.341097733937203884e-01
9.802441019564867020e-02
-1.115956997964531183e-01
-1.914509797934442759e-01
-7.590637542307376862e-03
4.972484568133950233e-02
3.684496181085705757e-02
-8.680192334577441216e-02
-1.711651626974344254e-01
-2.175327446311712265e-01
2.577349701896309853e-01
-6.551267991308122873e-01
8.299238111358135939e-01
4.927928508259356022e-01
1.334440908394753933e-01
-1.499133543111383915e-01
-3.569574875291436911e-01
8.453796717803925276e-01
2.219932924490422010e-01
2.277892401907593012e-01
-2.639003265649080276e-01
6.807868019677698612e-02
-1.534553223755210638e-01
1.076573587255552411e+00
-1.287851094268262386e+00
8.440916833933442831e-01
1.115482882596552372e-01
-1.128836881835013628e-01
-1.898409943096339703e-01
-7.268640445545315742e-03
4.940284858457744122e-02
3.652296471409499645e-02
-8.519193786196410656e-02
-1.730971452780067921e-01
-2.249386778566986322e-01
2.558029876090586185e-01
-6.641427178401499987e-01
8.225178779102861881e-01
4.860309117939323187e-01
1.270041489042341709e-01
-1.550653078593313694e-01
-3.653294120449572802e-01
8.231618721038103104e-01
2.036394579336047173e-01
2.197393127717077732e-01
-2.671202975325286388e-01
6.035074987448751926e-02
-9.613983915187418461e-02
1.071743630804121494e+00
-1.294935030397027731e+00
8.373297443613409996e-01
1.485779543872922659e-01
-1.183576388284564018e-01
-1.859770291484892368e-01
-8.556628832593560219e-03
5.487679922953248024e-02
4.167491826228797436e-02
-6.844808883033692837e-02
-1.644032236654311419e-01
-2.146347707603126764e-01
2.638529150281101465e-01
-6.596347584854811430e-01
8.324997879099100828e-01
4.940808392129838467e-01
1.353760734200477600e-01
-1.447614007629454136e-01
-3.579234788194298744e-01
7.938601362984627485e-01
2.007414840627461672e-01
2.219932924490422010e-01
-2.677642917260527611e-01
7.548461342230439186e-02
-5.750018754042685032e-02
1.073675613384693861e+00
-1.294613033300265670e+00
8.360417559742927551e-01
1.846416292246431112e-01
-1.254415749572217464e-01
-1.920949739869683981e-01
-1.660655625164508820e-02
4.875885439105331898e-02
3.298099664971232414e-02
-7.263405108824372292e-02
-1.756731220521032810e-01
-2.230066952761262655e-01
2.554809905122965574e-01
-6.718706481624394655e-01
8.260598459746688604e-01
4.869969030842185020e-01
1.286141343880444765e-01
-1.383214588277041912e-01
-3.621094410773366690e-01
7.606944353319704533e-01
1.952675334177911282e-01
2.210273011587560177e-01
-2.664763033390045166e-01
1.002783898729830980e-01
-3.946835012175142765e-02
1.077861575642600656e+00
-1.288173091365024447e+00
8.437696862965822220e-01
2.158753476105630398e-01
-1.154596649575978518e-01
-1.872650175355374813e-01
-6.624646252021193504e-03
5.455480213277041912e-02
4.006493277847766876e-02
-6.265214108861982822e-02
-1.682671888265758753e-01
-2.172107475344091654e-01
2.590229585766792297e-01
-6.738026307430118322e-01
8.279918285552412271e-01
4.892508827615529299e-01
1.282921372912824154e-01
-1.173916475381702185e-01
-3.569574875291436911e-01
7.400866211391985416e-01
1.901155798695981503e-01
2.158753476105630398e-01
-2.709842626936733723e-01
1.105822969693690538e-01
-3.882435592822730541e-02
1.068201662739738822e+00
-1.298476998461410403e+00
8.331437821034342051e-01
2.158753476105630398e-01
-1.241535865701735020e-01
-1.933829623740166426e-01
-1.209859689697623253e-02
4.811486019752919674e-02
3.426898503676056862e-02
-6.555011495947837830e-02
-1.708431656006723642e-01
-2.217187068890780210e-01
2.574129730928689241e-01
-6.760566104203462601e-01
8.296018140390515327e-01
4.924708537291735411e-01
1.331220937427133322e-01
-1.022577839903533459e-01
-3.386036530137062073e-01
7.413746095262467861e-01
1.984875043854117393e-01
2.232812808360904455e-01
-2.639003265649080276e-01
1.302241198718547821e-01
-3.077442850917577744e-02
1.075285598868504167e+00
-1.288817085558548570e+00
8.408717124257236719e-01
2.265012518037110567e-01
-1.183576388284564018e-01
-1.869430204387754202e-01
-8.556628832593560219e-03
4.747086600400507450e-02
3.716695890761911869e-02
-6.748209754005074501e-02
-1.759951191488653421e-01
-2.230066952761262655e-01
2.538710050284862518e-01
-6.821745552588254213e-01
8.205858953297138214e-01
4.863529088906943798e-01
1.234621808398514986e-01
-1.051557578612118959e-01
-3.395696443039923906e-01
7.307487053330987692e-01
1.939795450307428837e-01
2.190953185781836510e-01
-2.687302830163389444e-01
1.279701401945203543e-01
-3.367240238003432751e-02
1.070133645320311189e+00
-1.292037056526169181e+00
8.357197588775306940e-01
2.268232489004731178e-01
-1.199676243122667074e-01
-1.904849885031580925e-01
-9.200623026117682457e-03
4.553888342343270779e-02
4.006493277847766876e-02
-5.975416721776127815e-02
-1.673011975362896919e-01
-2.149567678570747375e-01
2.615989353507757187e-01
-6.731586365494877100e-01
8.318557937163859606e-01
4.947248334065079689e-01
1.315121082589030266e-01
-9.517384786158800125e-02
-3.273337546270340681e-01
7.355786617845296860e-01
1.975215130951255560e-01
2.287552314810454845e-01
-2.661543062422424555e-01
1.334440908394753933e-01
-3.109642560593783855e-02
1.068523659836500883e+00
-1.293325044913217425e+00
8.337877762969583273e-01
2.207053040619939566e-01
-1.247975807636976242e-01
-1.940269565675407648e-01
-1.660655625164508820e-02
3.298099664971232414e-02
3.555697342380881310e-02
-6.812609173357486725e-02
-1.718091568909585476e-01
-2.236506894696503878e-01
2.545149992220103741e-01
-6.815305610653012991e-01
8.260598459746688604e-01
4.973008101806044579e-01
1.228181866463273764e-01
-9.903781302273273468e-02
-3.324857081752270460e-01
7.342906733974814415e-01
1.981655072886496782e-01
2.361611647065728903e-01
-2.677642917260527611e-01
1.337660879362374544e-01
-2.948644012212753296e-02
1.000260275322943926e+00
-1.290105073945596814e+00
8.415157066192477942e-01
2.290772285778075457e-01
-1.183576388284564018e-01
-1.885530059225857258e-01
-1.306458818726241589e-02
3.716695890761911869e-02
4.167491826228797436e-02
-6.104215560480952263e-02
-1.663352062460035086e-01
-2.172107475344091654e-01
2.606329440604895353e-01
-6.767006046138703823e-01
8.276698314584791660e-01
5.098586969543248415e-01
1.244281721301376820e-01
-9.903781302273273468e-02
-3.344176907557994127e-01
7.297827140428125858e-01
1.930135537404567003e-01
2.384151443839073181e-01
-2.703402685001492500e-01
1.276481430977582932e-01
-3.753636754117906094e-02
8.418377037160098553e-01
-1.296545015880838037e+00
8.321777908131480217e-01
2.229592837393283844e-01
-1.289835430216044188e-01
-1.930609652772545815e-01
-2.369049238041043282e-02
3.104901406913995743e-02
3.523497632704675198e-02
-6.555011495947837830e-02
-1.644032236654311419e-01
-2.194647272117435932e-01
2.587009614799171686e-01
-6.770226017106324434e-01
8.382957356516271830e-01
5.195186098571866751e-01
1.257161605171859264e-01
-9.324186528101563454e-02
-3.244357807561755180e-01
7.365446530748158693e-01
2.004194869659841061e-01
2.503290369641035795e-01
-2.619683439843356609e-01
1.350540763232856989e-01
-2.691046334803104401e-02
7.320366937201470137e-01
-1.289461079752072692e+00
8.386177327483892441e-01
2.271452459972351789e-01
-1.367114733438938856e-01
-1.901629914063960314e-01
-2.079251850955188274e-02
3.072701697237789631e-02
3.587897052057087421e-02
-6.651610624976456165e-02
-1.605392585042864084e-01
-2.246166807599365711e-01
2.548369963187724352e-01
-6.834625436458736658e-01
8.618015237152576447e-01
5.150106505025178194e-01
1.208862040657550097e-01
-9.968180721625685692e-02
-3.337736965622752905e-01
7.288167227525264025e-01
1.933355508372187614e-01
2.464650718029588461e-01
-2.703402685001492500e-01
1.299021227750927210e-01
-3.238441399298608303e-02
6.692472598515450954e-01
-1.293969039106741548e+00
8.363637530710548162e-01
2.252132634166628122e-01
-1.473373775370419025e-01
-1.901629914063960314e-01
-2.111451560631394386e-02
3.330299374647438526e-02
4.038692987523972988e-02
-6.072015850804746151e-02
-1.531333252787590027e-01
-2.175327446311712265e-01
2.622429295442998409e-01
-6.738026307430118322e-01
8.943232304882258177e-01
5.230605779215693474e-01
1.257161605171859264e-01
-9.485185076482594013e-02
-3.282997459173202515e-01
6.135417621117085218e-01
1.965555218048393726e-01
2.512950282543897629e-01
-2.674422946292907000e-01
1.299021227750927210e-01
-3.077442850917577744e-02
6.441314863041043282e-01
-1.294613033300265670e+00
8.344317704904824495e-01
2.248912663199007511e-01
-1.550653078593313694e-01
-1.940269565675407648e-01
-2.852044883184134960e-02
2.654105471447110176e-02
3.523497632704675198e-02
-6.394012947566807270e-02
-1.563532962463796139e-01
-2.239726865664124489e-01
2.535490079317241907e-01
-6.776665959041565657e-01
9.030171521008014679e-01
5.185526185669004917e-01
1.221741924528032541e-01
-9.774982463568449020e-02
-3.311977197881788015e-01
2.909006711561232805e-01
1.939795450307428837e-01
2.512950282543897629e-01
-2.667983004357665777e-01
1.328000966459512711e-01
-2.336849528364837170e-02
6.415555095300078392e-01
-1.285597114590927958e+00
8.431256921030580997e-01
2.387371414806693792e-01
-1.460493891499936581e-01
-1.856550320517271757e-01
-2.079251850955188274e-02
3.813295019790530205e-02
4.135292116552591324e-02
-5.685619334690272808e-02
-1.502353514079004526e-01
-2.159227591473609209e-01
2.615989353507757187e-01
-6.705826597753912210e-01
9.136430562939494848e-01
5.246705634053796530e-01
1.250721663236618042e-01
-9.839381882920861244e-02
-3.331297023687511683e-01
-1.660655625164508820e-02
1.914035682566463947e-01
2.464650718029588461e-01
-2.729162452742457390e-01
1.244281721301376820e-01
-3.013043431565165520e-02
6.277096343692392111e-01
-1.293969039106741548e+00
8.302458082325756550e-01
2.345511792227625847e-01
-1.540993165690451860e-01
-1.927389681804925203e-01
-2.594447205774486065e-02
2.943902858532965183e-02
4.553888342343270779e-02
-5.782218463718891144e-02
-1.521673339884728193e-01
-2.204307185020297766e-01
2.641749121248722076e-01
-6.651087091304361820e-01
9.175070214550942183e-01
5.243485663086175919e-01
1.276481430977582932e-01
-9.291986818425357342e-02
-3.250797749496996403e-01
-1.663352062460035086e-01
2.004194869659841061e-01
2.551589934155344963e-01
-2.606803555972874165e-01
1.318341053556650877e-01
-2.175850979983806610e-02
6.335055821109563112e-01
-1.289783076848834753e+00
8.286358227487653494e-01
2.406691240612417459e-01
-1.495913572143763304e-01
-1.885530059225857258e-01
-2.304649818688631058e-02
3.201500535942614079e-02
5.391080793924629688e-02
-6.072015850804746151e-02
-1.563532962463796139e-01
-2.242946836631745100e-01
2.760888047050684690e-01
-6.696166684851050377e-01
9.094570940360426903e-01
5.172646301798522472e-01
1.125142795499414206e-01
-1.000038043130189180e-01
-3.328077052719891071e-01
-2.420045239850878716e-01
1.914035682566463947e-01
2.490410485770553350e-01
-2.593923672102391720e-01
1.234621808398514986e-01
-2.787645463831722736e-02
6.312516024336218834e-01
-1.287207100074738264e+00
8.228398750070482492e-01
2.374491530936211348e-01
-1.518453368917107582e-01
-1.875870146322995424e-01
-2.336849528364837170e-02
3.555697342380881310e-02
6.131674116477370262e-02
-5.492421076633036137e-02
-1.479813717305660248e-01
-2.159227591473609209e-01
3.008825811557471752e-01
-6.612447439692914486e-01
9.200829982291907072e-01
5.227385808248072863e-01
9.899040148593485355e-02
-9.324186528101563454e-02
-3.260457662399858236e-01
-2.648663178551942110e-01
1.955895305145531893e-01
2.541930021252483130e-01
-2.445805007591843605e-01
1.263601547107100487e-01
-2.852044883184134960e-02
6.280316314660012722e-01
-1.267887274269014597e+00
8.128579650074243546e-01
2.319752024486660957e-01
-1.569972904399037361e-01
-1.946709507610648870e-01
-2.948644012212753296e-02
3.169300826266407967e-02
5.648678471334278584e-02
-6.168614979833364487e-02
-1.537773194722831249e-01
-2.291246401146054268e-01
3.063565318007022142e-01
-6.673626888077706099e-01
9.142870504874736071e-01
5.198406069539487362e-01
7.612860761582851410e-02
-9.774982463568449020e-02
-3.305537255946546793e-01
-2.780681988224387169e-01
1.955895305145531893e-01
2.516170253511518240e-01
-2.381405588239431381e-01
1.273261460009962320e-01
-2.143651270307600498e-02
6.444534834008663893e-01
-1.233755582012236118e+00
8.234838692005723715e-01
2.422791095450520515e-01
-1.492693601176142693e-01
-1.872650175355374813e-01
-2.014852431602776051e-02
3.974293568171560764e-02
6.582470051944255829e-02
-5.589020205661654472e-02
-1.495913572143763304e-01
-2.371745675336569548e-01
3.131184708327054977e-01
-6.622107352595776320e-01
9.165410301648080349e-01
5.198406069539487362e-01
6.679069180972874165e-02
-9.613983915187418461e-02
-3.311977197881788015e-01
-2.845081407576799393e-01
1.933355508372187614e-01
2.483970543835312128e-01
-2.397505443077534437e-01
1.241061750333756208e-01
-2.916444302536547184e-02
8.865953001659363508e-01
-1.222807680722326040e+00
8.157559388782829046e-01
2.371271559968590736e-01
-1.528113281819969416e-01
-1.924169710837304592e-01
-1.435257657431066036e-02
3.813295019790530205e-02
6.067274697124958038e-02
-5.717819044366478920e-02
-1.515233397949486971e-01
-2.458684891462326050e-01
3.147284563165158033e-01
-6.609227468725293875e-01
9.184730127453804016e-01
5.227385808248072863e-01
6.807868019677698612e-02
-9.291986818425357342e-02
-3.250797749496996403e-01
-2.771022075321525335e-01
1.994534956756979227e-01
2.561249847058206797e-01
-2.320226139854639769e-01
1.318341053556650877e-01
-2.304649818688631058e-02
1.433990364661440253e+00
-1.210249793948605657e+00
8.186539127491414547e-01
2.397031327709555626e-01
-1.441174065694212914e-01
-1.895189972128719091e-01
-4.048669477924704552e-03
3.748895600438117981e-02
6.228273245505988598e-02
-5.975416721776127815e-02
-1.553873049560934305e-01
-2.526304281782358885e-01
3.111864882521331310e-01
-6.686506771948188543e-01
9.133210591971874237e-01
5.179086243733763695e-01
5.745277600362896919e-02
-1.006477985065430403e-01
-3.337736965622752905e-01
-2.857961291447281837e-01
1.891495885793119669e-01
2.500070398673415184e-01
-2.362085762433707714e-01
1.276481430977582932e-01
-2.143651270307600498e-02
1.871262422064319253e+00
-1.213147767819464207e+00
8.176879214588552713e-01
2.384151443839073181e-01
-1.328475081827491522e-01
-1.869430204387754202e-01
4.967249231413006783e-03
4.070892697200179100e-02
6.614669761620461941e-02
-5.299222818575799465e-02
-1.450833978597074747e-01
-2.458684891462326050e-01
3.192364156711846590e-01
-6.602787526790052652e-01
9.194390040356665850e-01
5.249925605021417141e-01
6.518070632591843605e-02
-9.420785657130181789e-02
-3.250797749496996403e-01
-2.819321639835834503e-01
1.878616001922637224e-01
2.538710050284862518e-01
-2.352425849530845881e-01
1.276481430977582932e-01
4.592898767441511154e-04
2.088610462378710508e+00
-1.213791762012988329e+00
8.128579650074243546e-01
2.358391676098108292e-01
-1.296275372151285410e-01
-1.927389681804925203e-01
3.035266650840640068e-03
3.555697342380881310e-02
6.163873826153576374e-02
-4.365431237965822220e-02
-1.540993165690451860e-01
-2.529524252749979496e-01
3.150504534132778645e-01
-6.657527033239603043e-01
9.146090475842356682e-01
5.195186098571866751e-01
6.099474406801164150e-02
-9.774982463568449020e-02
-3.311977197881788015e-01
-2.645443207584321499e-01
1.778796901926398277e-01
2.532270108349621296e-01
-2.333106023725122213e-01
1.273261460009962320e-01
3.008302277885377407e-02
2.186819576891139150e+00
-1.208961805561557412e+00
8.218738837167620659e-01
2.477530601900070906e-01
-1.196456272155046463e-01
-1.872650175355374813e-01
9.153211489319801331e-03
4.167491826228797436e-02
6.550270342268049717e-02
-7.912634639069437981e-03
-1.492693601176142693e-01
-2.484444659203290939e-01
3.160164447035640478e-01
-6.683286800980567932e-01
9.158970359712839127e-01
5.185526185669004917e-01
6.035074987448751926e-02
-9.710583044216036797e-02
-3.328077052719891071e-01
-2.052968549542129040e-01
1.730497337412089109e-01
2.464650718029588461e-01
-2.400725414045155048e-01
1.363420647103339434e-01
4.457289213314652443e-02
2.219985277857631445e+00
-1.214113759109750390e+00
8.147899475879967213e-01
2.487190514802932739e-01
-1.238315894734114408e-01
-1.924169710837304592e-01
6.899231811985373497e-03
3.555697342380881310e-02
5.841876729391515255e-02
1.366117084398865700e-02
-1.524893310852348804e-01
-2.506984455976635218e-01
3.144064592197537422e-01
-6.795985784847289324e-01
9.178290185518562794e-01
5.227385808248072863e-01
6.518070632591843605e-02
-8.132797270081937313e-02
-3.250797749496996403e-01
-1.402534414082765579e-01
1.830316437408328056e-01
2.570909759961068630e-01
-2.320226139854639769e-01
1.736937279347330332e-01
5.938475858420133591e-02
2.239949097856879234e+00
-1.207995814271271229e+00
8.199419011361896992e-01
2.561249847058206797e-01
-1.170696504414081573e-01
-1.908069855999201536e-01
6.899231811985373497e-03
3.877694439142942429e-02
6.035074987448751926e-02
2.235509245656430721e-02
-1.547433107625693083e-01
-2.561723962426185608e-01
3.121524795424193144e-01
-6.895804884843528271e-01
9.107450824230909348e-01
5.198406069539487362e-01
5.713077890686690807e-02
-7.649801624938845634e-02
-3.244357807561755180e-01
-1.161036591511219740e-01
1.753037134185433388e-01
2.503290369641035795e-01
-2.374965646304190159e-01
1.946235392242670059e-01
5.777477310039103031e-02
2.240915089147165418e+00
-1.209927796851843596e+00
8.157559388782829046e-01
2.567689788993448019e-01
-1.196456272155046463e-01
-1.872650175355374813e-01
1.076319697313010693e-02
4.199691535905003548e-02
6.453671213239431381e-02
3.104901406913995743e-02
-1.486253659240901470e-01
-2.471564775332808495e-01
3.189144185744225979e-01
-6.837845407426357269e-01
9.194390040356665850e-01
5.259585517924278975e-01
6.357072084210813046e-02
-6.233014399185776711e-02
-3.073699346277862787e-01
-9.710583044216036797e-02
1.785236843861639500e-01
2.545149992220103741e-01
-2.449024978559464216e-01
2.126553766429424286e-01
6.163873826153576374e-02
2.241237086243927479e+00
-1.211537782335653901e+00
8.147899475879967213e-01
2.522610195446759462e-01
-1.231875952798873186e-01
-1.953149449545890093e-01
3.035266650840640068e-03
3.104901406913995743e-02
5.841876729391515255e-02
2.621905761770904064e-02
-1.540993165690451860e-01
-2.552064049523323774e-01
3.124744766391813755e-01
-6.918344681616872549e-01
9.149310446809977293e-01
5.191966127604246140e-01
5.423280503600835800e-02
-6.136415270157158375e-02
-3.028619752731174231e-01
-9.549584495835006237e-02
1.765917018055915833e-01
2.541930021252483130e-01
-2.506984455976635218e-01
2.210273011587560177e-01
6.421471503563225269e-02
2.249609010759741068e+00
-1.203165857819840312e+00
8.241278633940964937e-01
2.612769382540136576e-01
-1.167476533446460962e-01
-1.862990262452512980e-01
1.076319697313010693e-02
3.684496181085705757e-02
6.485870922915637493e-02
3.362499084323644638e-02
-1.492693601176142693e-01
-2.494104572106152773e-01
3.153724505100399256e-01
-6.892584913875907660e-01
9.146090475842356682e-01
5.191966127604246140e-01
4.908085148781538010e-02
-6.104215560480952263e-02
-3.028619752731174231e-01
-9.613983915187418461e-02
1.733717308379709721e-01
2.506510340608656406e-01
-2.651883149519562721e-01
2.136213679332286119e-01
5.745277600362896919e-02
2.230611182050779462e+00
-1.206707825884222984e+00
8.154339417815208435e-01
2.532270108349621296e-01
-1.222216039896011353e-01
-1.914509797934442759e-01
7.221228908747434616e-03
3.201500535942614079e-02
6.067274697124958038e-02
3.233700245618820190e-02
-1.521673339884728193e-01
-2.500544514041393995e-01
3.147284563165158033e-01
-6.899024855811148882e-01
9.191170069389045238e-01
5.291785227600485086e-01
5.165682826191186905e-02
-5.363622237928211689e-02
-2.961000362411141396e-01
-8.776791463606059551e-02
1.804556669667363167e-01
2.686828714795410633e-01
-2.600363614037632942e-01
2.252132634166628122e-01
6.550270342268049717e-02
1.979775443673133850e+00
-1.196081921691074967e+00
8.192979069426655769e-01
2.596669527702033520e-01
-1.215776097960770130e-01
-1.882310088258236647e-01
7.865223102271556854e-03
3.137101116590201855e-02
6.196073535829782486e-02
2.847303729504346848e-02
-1.515233397949486971e-01
-2.561723962426185608e-01
3.111864882521331310e-01
-6.937664507422596216e-01
9.107450824230909348e-01
5.278905343730002642e-01
4.650487471371889114e-02
-5.911017302423715591e-02
-3.022179810795933008e-01
-9.388585947453975677e-02
1.720837424509227276e-01
2.715808453503996134e-01
-2.667983004357665777e-01
2.194173156749457121e-01
6.099474406801164150e-02
1.383436820469796658e+00
-1.200589881045743823e+00
8.154339417815208435e-01
2.567689788993448019e-01
-1.331695052795112133e-01
-1.914509797934442759e-01
9.153211489319801331e-03
3.265899955295026302e-02
6.518070632591843605e-02
3.459098213352262974e-02
-1.305935285054147243e-01
-2.487664630170911551e-01
3.176264301873743534e-01
-6.850725291296839714e-01
9.265229401644319296e-01
5.417364095337688923e-01
5.294481664896011353e-02
-5.556820495985448360e-02
-2.938460565637797117e-01
-8.905590302310883999e-02
1.846416292246431112e-01
2.799527698662132025e-01
-2.667983004357665777e-01
2.200613098684698343e-01
6.035074987448751926e-02
8.920692508108913898e-01
-1.201233875239267945e+00
8.154339417815208435e-01
2.532270108349621296e-01
-1.582852788269519806e-01
-1.962809362448751926e-01
3.035266650840640068e-03
2.943902858532965183e-02
5.777477310039103031e-02
2.750704600475728512e-02
-1.235095923766493797e-01
-2.539184165652841330e-01
3.105424940586090088e-01
-6.921564652584493160e-01
9.400468182284384966e-01
5.388384356629103422e-01
4.843685729429125786e-02
-5.911017302423715591e-02
-2.973880246281623840e-01
-9.227587399072945118e-02
1.888275914825499058e-01
2.818847524467855692e-01
-2.642223236616700888e-01
2.232812808360904455e-01
6.646869471296668053e-02
6.496054369490593672e-01
-1.192861950723454356e+00
8.228398750070482492e-01
2.599889498669654131e-01
-1.663352062460035086e-01
-1.859770291484892368e-01
1.140719116665422916e-02
3.620096761733293533e-02
6.550270342268049717e-02
3.459098213352262974e-02
-1.112737026996910572e-01
-2.506984455976635218e-01
3.153724505100399256e-01
-6.886144971940666437e-01
9.622646179050207138e-01
5.407704182434827089e-01
4.875885439105331898e-02
-5.975416721776127815e-02
-3.002859984990209341e-01
2.654105471447110176e-02
1.875396030955016613e-01
2.770547959953546524e-01
-2.719502539839595556e-01
2.168413389008492231e-01
5.841876729391515255e-02
5.340084792114794254e-01
-1.198657898465171456e+00
8.138239562977105379e-01
2.545149992220103741e-01
-1.814690697938203812e-01
-1.933829623740166426e-01
3.035266650840640068e-03
2.847303729504346848e-02
6.035074987448751926e-02
2.750704600475728512e-02
-1.096637172158807516e-01
-2.526304281782358885e-01
3.147284563165158033e-01
-6.905464797746390104e-01
9.719245308078825474e-01
5.407704182434827089e-01
5.197882535867393017e-02
-5.428021657280623913e-02
-2.964220333378762007e-01
4.164795388933271170e-01
1.968775189016014338e-01
2.863927118014544249e-01
-2.635783294681459665e-01
2.229592837393283844e-01
6.260472955182194710e-02
4.976228072773665190e-01
-1.194149939110502601e+00
8.202638982329517603e-01
2.570909759961068630e-01
-1.817910668905824423e-01
-1.924169710837304592e-01
6.255237618461251259e-03
3.008302277885377407e-02
6.131674116477370262e-02
2.879503439180552959e-02
-1.128836881835013628e-01
-2.561723962426185608e-01
3.092545056715607643e-01
-6.979524130001664162e-01
9.719245308078825474e-01
5.349744705017656088e-01
4.586088052019476891e-02
-5.878817592747509480e-02
-3.012519897893071175e-01
7.970801072660833597e-01
1.920475624501705170e-01
2.809187611564993858e-01
-2.693742772098630667e-01
2.184513243846595287e-01
5.938475858420133591e-02
4.757270046975463629e-01
-1.200267883948981762e+00
8.112479795236140490e-01
2.554809905122965574e-01
-1.830790552776306868e-01
-1.891970001161098480e-01
9.153211489319801331e-03
3.523497632704675198e-02
7.677260180935263634e-02
3.362499084323644638e-02
-1.038677694741636515e-01
-2.500544514041393995e-01
3.208464011549949646e-01
-6.924784623552113771e-01
9.825504350010305643e-01
5.427024008240550756e-01
5.133483116514980793e-02
-4.590829205699265003e-02
-2.989980101119726896e-01
1.010564182419329882e+00
1.949455363210290670e-01
2.825287466403096914e-01
-2.664763033390045166e-01
2.258572576101869345e-01
6.035074987448751926e-02
4.721850366331636906e-01
-1.198657898465171456e+00
7.970801072660833597e-01
2.532270108349621296e-01
-1.879090117290616035e-01
-1.956369420513510704e-01
3.679260844364762306e-03
2.654105471447110176e-02
7.677260180935263634e-02
2.621905761770904064e-02
-1.080537317320704460e-01
-2.545624107588082552e-01
3.269643459934741259e-01
-6.979524130001664162e-01
9.764324901625514030e-01
5.388384356629103422e-01
4.167491826228797436e-02
-4.880626592785120010e-02
-3.047939578536897898e-01
1.098791386932134628e+00
1.946235392242670059e-01
2.851047234144061804e-01
-2.684082859195768833e-01
2.303652169648557901e-01
6.614669761620461941e-02
4.744390163104981184e-01
-1.187066002981737256e+00
7.964361130725592375e-01
2.615989353507757187e-01
-1.817910668905824423e-01
-1.856550320517271757e-01
1.011920277960598469e-02
3.298099664971232414e-02
9.222846245393157005e-02
3.137101116590201855e-02
-1.061217491514980793e-01
-2.506984455976635218e-01
3.424202066380530596e-01
-6.966644246131181717e-01
9.796524611301720142e-01
5.414144124370068312e-01
2.654105471447110176e-02
-4.751827754080295563e-02
-3.125218881759792566e-01
1.132601082092151046e+00
1.897935827728360891e-01
2.812407582532614470e-01
-2.774242046289145947e-01
2.229592837393283844e-01
5.809677019715309143e-02
4.660670917946845293e-01
-1.158086264273151755e+00
7.858102088794112206e-01
2.538710050284862518e-01
-1.869430204387754202e-01
-1.933829623740166426e-01
3.357263747602701187e-03
2.428707503713667393e-02
9.255045955069363117e-02
3.008302277885377407e-02
-1.074097375385463238e-01
-2.465124833397567272e-01
3.482161543797701597e-01
-6.950544391293078661e-01
9.796524611301720142e-01
5.404484211467206478e-01
1.591515052132308483e-02
-4.365431237965822220e-02
-3.073699346277862787e-01
1.157072861446067691e+00
1.968775189016014338e-01
2.873587030917406082e-01
-2.725942481774836779e-01
2.287552314810454845e-01
6.389271793887019157e-02
4.750830105040222406e-01
-1.100770781049504876e+00
7.887081827502697706e-01
2.561249847058206797e-01
-1.837230494711548090e-01
-1.901629914063960314e-01
6.255237618461251259e-03
1.977911568246781826e-02
8.965248567983508110e-02
2.621905761770904064e-02
-1.109517056029289961e-01
-2.400725414045155048e-01
3.440301921218633652e-01
-7.011723839677870274e-01
9.735345162916928530e-01
5.352964675985276699e-01
-5.067014135420322418e-04
-4.880626592785120010e-02
-3.141318736597895622e-01
1.151920907897874713e+00
1.907595740631222725e-01
2.802747669629752636e-01
-2.835421494673937559e-01
2.248912663199007511e-01
5.841876729391515255e-02
4.644571063108742237e-01
-1.077586990082636476e+00
7.832342321053147316e-01
2.551589934155344963e-01
-1.862990262452512980e-01
-1.898409943096339703e-01
2.428707503713667393e-02
2.171109826304018497e-02
9.512643632479012012e-02
3.459098213352262974e-02
-1.064437462482601404e-01
-2.226846981793642044e-01
3.562660817988216877e-01
-6.918344681616872549e-01
9.793304640334099531e-01
5.423804037272930145e-01
4.967249231413006783e-03
-4.397630947642028332e-02
-3.083359259180724621e-01
1.159970835316926241e+00
1.965555218048393726e-01
2.834947379305958748e-01
-2.800001814030110836e-01
2.277892401907593012e-01
6.099474406801164150e-02
4.554411876015365124e-01
-1.065029103308916092e+00
7.796922640409320593e-01
2.506510340608656406e-01
-1.911289826966822147e-01
-1.933829623740166426e-01
3.845494729466736317e-02
1.462716213427484035e-02
8.772050309926271439e-02
2.525306632742285728e-02
-1.144936736673116684e-01
-2.294466372113674879e-01
3.472501630894839764e-01
-6.998843955807387829e-01
9.764324901625514030e-01
5.359404617920517921e-01
-4.692663671448826790e-03
-4.655228625051677227e-02
-3.125218881759792566e-01
1.156428867252543569e+00
1.968775189016014338e-01
2.838167350273579359e-01
-2.796781843062490225e-01
2.287552314810454845e-01
6.453671213239431381e-02
4.502892340533435345e-01
-1.052793213631957769e+00
7.893521769437938929e-01
2.583789643831551075e-01
-1.840450465679168701e-01
-1.872650175355374813e-01
5.970675568096339703e-02
2.235509245656430721e-02
9.577043051831424236e-02
3.137101116590201855e-02
-1.041897665709257126e-01
-2.184987359214574099e-01
3.543340992182493210e-01
-6.937664507422596216e-01
9.786864698398858309e-01
5.404484211467206478e-01
-1.472692703828215599e-03
-4.912826302461326122e-02
-3.154198620468378067e-01
1.152564902091398835e+00
2.000974898692220449e-01
2.786647814791649580e-01
-2.841861436609178782e-01
2.216712953522801399e-01
6.550270342268049717e-02
4.425613037310540676e-01
-1.056657178793102503e+00
7.845222204923629761e-01
2.509730311576277018e-01
-1.933829623740166426e-01
-1.956369420513510704e-01
5.841876729391515255e-02
1.655914471484720707e-02
9.126247116364538670e-02
3.491297923028469086e-02
-1.099857143126428127e-01
-2.210747126955538988e-01
3.504701340571045876e-01
-6.973084188066422939e-01
9.799744582269340754e-01
5.420584066305309534e-01
-1.794689800590276718e-03
-4.397630947642028332e-02
-3.083359259180724621e-01
1.140329012414440513e+00
2.091134085785597563e-01
2.854267205111682415e-01
-2.758142191451042891e-01
2.297212227713316679e-01
8.256854955106973648e-02
4.461032717954367399e-01
-1.052471216535195708e+00
7.880641885567456484e-01
2.374491530936211348e-01
-1.895189972128719091e-01
-1.904849885031580925e-01
6.196073535829782486e-02
1.849112729541957378e-02
9.094047406688332558e-02
4.779286310076713562e-02
-1.112737026996910572e-01
-2.226846981793642044e-01
3.475721601862460375e-01
-6.992404013872146606e-01
9.712805366143584251e-01
5.349744705017656088e-01
-6.946643348783254623e-03
-5.009425431489944458e-02
-3.147758678533136845e-01
1.065303688868880272e+00
2.036394579336047173e-01
2.805967640597373247e-01
-2.796781843062490225e-01
2.393811356741935015e-01
8.643251471221446991e-02
4.412733153440058231e-01
-1.053437207825481892e+00
7.848442175891250372e-01
2.136213679332286119e-01
-1.908069855999201536e-01
-1.908069855999201536e-01
6.485870922915637493e-02
2.171109826304018497e-02
9.448244213126599789e-02
6.099474406801164150e-02
-1.048337607644498348e-01
-2.178547417279332876e-01
3.581980643793940544e-01
-6.821745552588254213e-01
9.835164262913167477e-01
5.449563805013895035e-01
1.103284070268273354e-03
-5.073824850842356682e-02
-3.060819462407380342e-01
1.002514255000278354e+00
2.087914114817976952e-01
2.841387321241199970e-01
-2.764582133386284113e-01
2.796307727694511414e-01
8.933048858307301998e-02
4.412733153440058231e-01
-1.056013184599578381e+00
7.832342321053147316e-01
1.975215130951255560e-01
-1.930609652772545815e-01
-1.937049594707787037e-01
5.777477310039103031e-02
1.559315342456102371e-02
8.482252922840416431e-02
6.099474406801164150e-02
-1.119176968932151794e-01
-2.249386778566986322e-01
3.485381514765322208e-01
-6.821745552588254213e-01
9.748225046787410975e-01
5.375504472758620977e-01
-4.048669477924704552e-03
-6.361813237890601158e-02
-2.970660275314003229e-01
9.590446469374001026e-01
2.062154347077012062e-01
2.838167350273579359e-01
-2.777462017256766558e-01
3.153724505100399256e-01
9.416044503450393677e-02
4.444932863116264343e-01
-1.048929248470813036e+00
7.932161421049386263e-01
1.997754927724599838e-01
-1.898409943096339703e-01
-1.859770291484892368e-01
6.679069180972874165e-02
2.010111277922987938e-02
8.707650890573859215e-02
6.872267439030110836e-02
-1.038677694741636515e-01
-2.191427301149815321e-01
3.575540701858699322e-01
-6.792765813879668713e-01
9.793304640334099531e-01
5.385164385661482811e-01
-2.438683994114398956e-03
-7.456603366881608963e-02
-2.787121930159628391e-01
9.426227950025349855e-01
2.033174608368426561e-01
2.802747669629752636e-01
-2.816101668868213892e-01
3.288963285740464926e-01
8.707650890573859215e-02
4.383753414731472731e-01
-1.055047193309292197e+00
7.867762001696974039e-01
1.923695595469325781e-01
-1.933829623740166426e-01
-1.930609652772545815e-01
6.292672664858400822e-02
2.235509245656430721e-02
8.160255826078355312e-02
6.646869471296668053e-02
-1.083757288288325071e-01
-2.226846981793642044e-01
3.598080498632043600e-01
-6.754126162268221378e-01
9.806184524204581976e-01
5.433463950175791979e-01
3.357263747602701187e-03
-7.166805979795753956e-02
-2.574603846296668053e-01
9.406908124219626188e-01
2.094354056753218174e-01
2.863927118014544249e-01
-2.684082859195768833e-01
3.449961834121495485e-01
9.802441019564867020e-02
4.457812746986746788e-01
-1.047963257180526853e+00
7.941821333952248096e-01
1.955895305145531893e-01
-1.882310088258236647e-01
-1.917729768902063370e-01
6.324872374534606934e-02
3.426898503676056862e-02
8.063656697049736977e-02
6.614669761620461941e-02
-1.125616910867393017e-01
-2.233286923728883266e-01
3.607740411534905434e-01
-6.815305610653012991e-01
9.738565133884549141e-01
5.333644850179553032e-01
-3.404675284400582314e-03
-7.842999882996082306e-02
-2.545624107588082552e-01
9.323188879061490297e-01
2.062154347077012062e-01
2.831727408338338137e-01
-2.690522801131010056e-01
3.443521892186254263e-01
9.061847697012126446e-02
4.454592776019126177e-01
-1.046031274599954486e+00
7.893521769437938929e-01
1.930135537404567003e-01
-1.927389681804925203e-01
-1.904849885031580925e-01
6.292672664858400822e-02
4.489488922990858555e-02
8.192455535754561424e-02
7.001066277734935284e-02
-1.035457723774015903e-01
-2.175327446311712265e-01
3.665699888952076435e-01
-6.754126162268221378e-01
9.831944291945546865e-01
5.410924153402447701e-01
7.812869735062122345e-04
-7.488803076557815075e-02
-2.468344804365187883e-01
9.355388588737696409e-01
2.087914114817976952e-01
2.899346798658370972e-01
-2.677642917260527611e-01
3.449961834121495485e-01
8.997448277659714222e-02
6.586213556583970785e-01
-1.045709277503192425e+00
7.887081827502697706e-01
1.881835972890257835e-01
-1.991789101157337427e-01
-1.966029333416372538e-01
5.874076439067721367e-02
4.328490374609827995e-02
7.548461342230439186e-02
6.453671213239431381e-02
-1.096637172158807516e-01
-2.262266662437468767e-01
3.591640556696802378e-01
-6.808865668717771769e-01
9.738565133884549141e-01
5.330424879211932421e-01
-3.404675284400582314e-03
-8.036198141053318977e-02
-2.490884601138532162e-01
9.297429111320525408e-01
2.065374318044632673e-01
2.986286014784127474e-01
-2.674422946292907000e-01
3.501481369603425264e-01
9.512643632479012012e-02
1.217608315637335181e+00
-1.037015355890616775e+00
7.961141159757971764e-01
1.965555218048393726e-01
-2.584263759199529886e-01
-1.872650175355374813e-01
6.743468600325286388e-02
5.230082245543599129e-02
8.321254374459385872e-02
7.162064826115965843e-02
-9.485185076482594013e-02
-2.191427301149815321e-01
3.662479917984455824e-01
-6.783105900976806879e-01
9.841604204848408699e-01
5.343304763082414865e-01
-4.370666574686765671e-03
-8.036198141053318977e-02
-2.494104572106152773e-01
9.281329256482422352e-01
2.000974898692220449e-01
2.960526247043162584e-01
-2.722722510807216167e-01
3.401662269607186317e-01
8.514452632516622543e-02
1.699959966586902738e+00
-1.043133300729095936e+00
7.874201943632215261e-01
1.888275914825499058e-01
-4.123409881722182035e-01
-1.940269565675407648e-01
5.809677019715309143e-02
4.714886890724301338e-02
7.806059019640088081e-02
6.646869471296668053e-02
-9.130988270044326782e-02
-2.233286923728883266e-01
3.646380063146352768e-01
-6.750906191300600767e-01
9.967183072585612535e-01
5.343304763082414865e-01
-1.847043167799711227e-04
-7.488803076557815075e-02
-2.429705152753740549e-01
9.371488443575799465e-01
2.026734666433185339e-01
3.053905405104160309e-01
-2.648663178551942110e-01
3.491821456700563431e-01
9.126247116364538670e-02
1.960777614964172244e+00
-1.039591332664713264e+00
7.932161421049386263e-01
1.926915566436946392e-01
-5.279379459097981453e-01
-1.888750030193477869e-01
6.389271793887019157e-02
4.940284858457744122e-02
7.902658148668706417e-02
6.389271793887019157e-02
-8.486994076520204544e-02
-2.278366517275571823e-01
3.614180353470146656e-01
-6.815305610653012991e-01
1.000582272419705987e+00
5.301445140503346920e-01
-5.980652058497071266e-03
-8.068397850729525089e-02
-2.494104572106152773e-01
9.065591201651841402e-01
1.955895305145531893e-01
2.979846072848886251e-01
-2.693742772098630667e-01
3.424202066380530596e-01
8.224655245430767536e-02
2.066714659798890352e+00
-1.040557323954999447e+00
7.909621624276041985e-01
1.894715856760740280e-01
-5.846094349399209023e-01
-1.901629914063960314e-01
6.518070632591843605e-02
5.101283406838774681e-02
8.192455535754561424e-02
6.840067729353904724e-02
-7.360004237852990627e-02
-2.168887504376471043e-01
3.688239685725420713e-01
-6.721926452592015266e-01
1.014106150483712554e+00
5.369064530823379755e-01
3.679260844364762306e-03
-7.392203947529196739e-02
-2.449024978559464216e-01
8.389397298451513052e-01
1.975215130951255560e-01
3.063565318007022142e-01
-2.645443207584321499e-01
3.495041427668184042e-01
8.353454084135591984e-02
2.111794253345578909e+00
-1.041523315245285630e+00
7.874201943632215261e-01
1.859296176116913557e-01
-6.135891736485064030e-01
-1.953149449545890093e-01
5.874076439067721367e-02
4.650487471371889114e-02
7.612860761582851410e-02
5.970675568096339703e-02
-7.939599012024700642e-02
-2.233286923728883266e-01
3.627060237340629101e-01
-6.715486510656774044e-01
1.012496164999902248e+00
5.330424879211932421e-01
-2.760681090876460075e-03
-8.068397850729525089e-02
-2.478004717268049717e-01
7.577964614611119032e-01
1.959115276113152504e-01
3.047465463168919086e-01
-2.648663178551942110e-01
3.524021166376769543e-01
8.160255826078355312e-02
2.134012053022161126e+00
-1.035405370406806469e+00
7.938601362984627485e-01
1.926915566436946392e-01
-6.171311417128890753e-01
-1.862990262452512980e-01
6.711268890649080276e-02
5.358881084248423576e-02
6.904467148706316948e-02
6.485870922915637493e-02
-7.134606270119547844e-02
-2.197867243085056543e-01
3.704339540563523769e-01
-6.670406917110085487e-01
1.018936106935143471e+00
5.343304763082414865e-01
-4.370666574686765671e-03
-8.551393495872616768e-02
-2.490884601138532162e-01
7.082089085597544909e-01
1.920475624501705170e-01
2.979846072848886251e-01
-2.693742772098630667e-01
3.491821456700563431e-01
7.838258729316294193e-02
2.133046061731874943e+00
-1.042489306535571814e+00
7.796922640409320593e-01
1.836756379343569279e-01
-6.271130517125129700e-01
-1.914509797934442759e-01
6.357072084210813046e-02
4.811486019752919674e-02
4.682687181048095226e-02
6.035074987448751926e-02
-7.585402205586433411e-02
-2.207527155987918377e-01
3.826698437333106995e-01
-6.654307062271982431e-01
1.018614109838381410e+00
5.378724443726241589e-01
5.289246328175067902e-03
-8.068397850729525089e-02
-2.442585036624222994e-01
6.982269985601305962e-01
1.994534956756979227e-01
3.079665172845125198e-01
-2.523084310814738274e-01
3.556220876052975655e-01
8.546652342192828655e-02
2.140129997860640287e+00
-1.028321434278041124e+00
7.787262727506458759e-01
1.897935827728360891e-01
-6.238930807448923588e-01
-1.875870146322995424e-01
6.357072084210813046e-02
4.747086600400507450e-02
3.877694439142942429e-02
6.067274697124958038e-02
-7.842999882996082306e-02
-2.233286923728883266e-01
3.968377159908413887e-01
-6.683286800980567932e-01
1.015072141773998737e+00
5.301445140503346920e-01
7.865223102271556854e-03
-9.227587399072945118e-02
-2.484444659203290939e-01
6.843811233993619680e-01
1.939795450307428837e-01
3.008825811557471752e-01
-2.429705152753740549e-01
3.527241137344390154e-01
7.967057568021118641e-02
2.136266032699495554e+00
-9.842078320216387510e-01
7.738963162992149591e-01
1.881835972890257835e-01
-6.258250633254647255e-01
-1.872650175355374813e-01
6.743468600325286388e-02
4.747086600400507450e-02
3.942093858495354652e-02
6.711268890649080276e-02
-7.005807431414723396e-02
-2.139907765667885542e-01
4.145475563127547503e-01
-6.615667410660535097e-01
1.022156077902764082e+00
5.401264240499585867e-01
2.557506342418491840e-02
-8.712392044253647327e-02
-2.426485181786119938e-01
6.843811233993619680e-01
1.968775189016014338e-01
3.037805550266057253e-01
-2.297686343081295490e-01
3.543340992182493210e-01
8.128056116402149200e-02
2.132080070441588759e+00
-9.210964010562747717e-01
7.713203395251184702e-01
1.836756379343569279e-01
-6.290450342930853367e-01
-1.943489536643028259e-01
6.582470051944255829e-02
3.620096761733293533e-02
2.911703148856759071e-02
5.970675568096339703e-02
-7.907399302348494530e-02
-2.236506894696503878e-01
4.093956027645617723e-01
-6.676846859045326710e-01
1.017648118548095226e+00
5.333644850179553032e-01
2.557506342418491840e-02
-8.937790011987090111e-02
-2.487664630170911551e-01
6.827711379155516624e-01
1.939795450307428837e-01
2.995945927686989307e-01
-2.230066952761262655e-01
3.562660817988216877e-01
8.450053213164210320e-02
1.987825371092185378e+00
-8.711868510581552982e-01
7.793702669441699982e-01
1.920475624501705170e-01
-6.209951068740338087e-01
-1.859770291484892368e-01
1.150902563240379095e-01
4.457289213314652443e-02
3.491297923028469086e-02
6.550270342268049717e-02
-7.327804528176784515e-02
-2.168887504376471043e-01
4.171235330868512392e-01
-6.644647149369120598e-01
1.018614109838381410e+00
5.343304763082414865e-01
2.654105471447110176e-02
-9.066588850691914558e-02
-2.519864339847117662e-01
6.750432075932621956e-01
1.904375769663602114e-01
2.886466914787888527e-01
-2.275146546307951212e-01
3.495041427668184042e-01
7.709459890611469746e-02
1.576313081430271268e+00
-8.605609468650072813e-01
7.700323511380702257e-01
1.846416292246431112e-01
-6.461108804214745760e-01
-1.933829623740166426e-01
1.682197772897779942e-01
3.781095310114324093e-02
2.976102568209171295e-02
6.067274697124958038e-02
-8.003998431377112865e-02
-2.201087214052677155e-01
4.168015359900891781e-01
-6.625327323563396931e-01
1.020224095322191715e+00
5.349744705017656088e-01
3.330299374647438526e-02
-8.744591753929853439e-02
-2.439365065656602383e-01
6.834151321090757847e-01
1.791676785796880722e-01
2.954086305107921362e-01
-2.201087214052677155e-01
3.565880788955837488e-01
8.289054664783179760e-02
1.213744350476190448e+00
-8.476810629945248365e-01
7.758282988797873259e-01
1.868956089019775391e-01
-6.799205755814909935e-01
-1.882310088258236647e-01
2.123333795461803675e-01
3.684496181085705757e-02
2.943902858532965183e-02
5.777477310039103031e-02
-8.776791463606059551e-02
-2.252606749534606934e-01
4.103615940548479557e-01
-6.680066830012947321e-01
1.012818162096664310e+00
5.291785227600485086e-01
2.396507794037461281e-02
-9.356386237777769566e-02
-2.503764485009014606e-01
6.776191843673586845e-01
1.469679689034819603e-01
2.889686885755509138e-01
-2.223627010826021433e-01
3.511141282506287098e-01
8.224655245430767536e-02
1.021512083709239960e+00
-8.470370688010007143e-01
7.726083279121667147e-01
1.862516147084534168e-01
-7.108322968706488609e-01
-1.895189972128719091e-01
2.319752024486660957e-01
3.974293568171560764e-02
3.362499084323644638e-02
5.745277600362896919e-02
-8.164996979758143425e-02
-2.178547417279332876e-01
4.213094953447580338e-01
-6.612447439692914486e-01
1.022478074999526143e+00
5.362624588888138533e-01
3.394698793999850750e-02
-8.615792915225028992e-02
-2.436145094688981771e-01
6.863131059799343348e-01
1.318341053556650877e-01
2.902566769625991583e-01
-2.188207330182194710e-01
3.553000905085355043e-01
8.933048858307301998e-02
9.342508704867213964e-01
-8.483250571880489588e-01
7.713203395251184702e-01
1.753037134185433388e-01
-7.314401110634207726e-01
-1.927389681804925203e-01
2.339071850292384624e-01
3.298099664971232414e-02
2.493106923066079617e-02
3.201500535942614079e-02
-9.130988270044326782e-02
-2.236506894696503878e-01
4.126155737321823835e-01
-6.544828049372881651e-01
1.015072141773998737e+00
5.314325024373829365e-01
2.911703148856759071e-02
-9.195387689396739006e-02
-2.481224688235670328e-01
6.856691117864102125e-01
1.202422098722308874e-01
2.912226682528853416e-01
-2.178547417279332876e-01
3.746199163142591715e-01
9.287245664745569229e-02
9.062371230684220791e-01
-8.376991529949009418e-01
7.790482698474079370e-01
1.740157250314950943e-01
-7.320841052569448948e-01
-1.866210233420133591e-01
2.426011066418141127e-01
4.167491826228797436e-02
3.330299374647438526e-02
2.396507794037461281e-02
-8.486994076520204544e-02
-2.197867243085056543e-01
4.171235330868512392e-01
-6.309770168736577034e-01
1.018292112741619349e+00
5.330424879211932421e-01
2.976102568209171295e-02
-1.167476533446460962e-01
-2.487664630170911551e-01
6.892110798507928848e-01
1.112262911628931761e-01
2.863927118014544249e-01
-2.239726865664124489e-01
4.267834459897130728e-01
8.965248567983508110e-02
8.859513059724122286e-01
-8.470370688010007143e-01
7.700323511380702257e-01
1.617798353545367718e-01
-7.404560297727584839e-01
-1.924169710837304592e-01
2.390591385774314404e-01
3.684496181085705757e-02
3.104901406913995743e-02
1.011920277960598469e-02
-9.130988270044326782e-02
-2.197867243085056543e-01
4.180895243771374226e-01
-6.135891736485064030e-01
1.018614109838381410e+00
5.343304763082414865e-01
3.265899955295026302e-02
-1.531333252787590027e-01
-2.378185617271810770e-01
6.956510217860341072e-01
1.160562476143240929e-01
2.931546508334577084e-01
-2.172107475344091654e-01
4.902168740518391132e-01
9.609242761507630348e-02
8.869172972626984119e-01
-8.425291094463318586e-01
7.771162872668355703e-01
1.649998063221573830e-01
-7.375580559018999338e-01
-1.914509797934442759e-01
2.403471269644796848e-01
3.491297923028469086e-02
2.718504890799522400e-02
2.713269554078578949e-03
-9.195387689396739006e-02
-2.249386778566986322e-01
4.148695534095168114e-01
-6.123011852614581585e-01
1.012174167903140187e+00
5.311105053406208754e-01
2.621905761770904064e-02
-1.846890407614409924e-01
-2.326666081789880991e-01
6.901770711410790682e-01
1.109042940661311150e-01
2.863927118014544249e-01
-2.230066952761262655e-01
5.127566708251833916e-01
9.255045955069363117e-02
8.814433466177433729e-01
-8.454270833171904087e-01
7.726083279121667147e-01
1.633898208383470774e-01
-7.388460442889481783e-01
-1.908069855999201536e-01
2.432451008353382349e-01
4.231891245581209660e-02
3.491297923028469086e-02
9.475208586081862450e-03
-8.551393495872616768e-02
-2.168887504376471043e-01
4.264614488929510117e-01
-6.013532839715480804e-01
1.022800072096288204e+00
5.378724443726241589e-01
3.426898503676056862e-02
-1.917729768902063370e-01
-2.188207330182194710e-01
6.953290246892720461e-01
1.150902563240379095e-01
2.921886595431715250e-01
-2.178547417279332876e-01
5.304665111470967531e-01
9.416044503450393677e-02
8.827313350047916174e-01
-8.434951007366180420e-01
7.709983424283564091e-01
1.592038585804402828e-01
-7.436760007403790951e-01
-1.937049594707787037e-01
2.377711501903831959e-01
4.521688632667064667e-02
2.686305181123316288e-02
3.357263747602701187e-03
-9.066588850691914558e-02
-2.197867243085056543e-01
4.258174546994268894e-01
-6.019972781650722027e-01
1.017004124354571104e+00
5.327204908244311810e-01
3.040501987561583519e-02
-2.007888955995440483e-01
-2.201087214052677155e-01
6.943630333989858627e-01
1.118702853564172983e-01
2.892906856723129749e-01
-2.197867243085056543e-01
5.378724443726241589e-01
9.802441019564867020e-02
8.846633175853639841e-01
-8.373771558981388807e-01
7.793702669441699982e-01
1.675757830962538719e-01
-7.356260733213275671e-01
-1.850110378582030535e-01
2.454990805126726627e-01
6.002875277772545815e-02
3.491297923028469086e-02
9.475208586081862450e-03
-8.680192334577441216e-02
-2.091608201153576374e-01
4.293594227638095617e-01
-5.984553101006895304e-01
1.018292112741619349e+00
5.262805488891899586e-01
3.137101116590201855e-02
-2.036868694704025984e-01
-2.188207330182194710e-01
6.911430624313652515e-01
1.105822969693690538e-01
2.751228134147822857e-01
-2.236506894696503878e-01
5.333644850179553032e-01
9.029647987335920334e-02
6.766531930770725012e-01
-8.457490804139524698e-01
7.719643337186425924e-01
1.601698498707264662e-01
-7.401340326759964228e-01
-1.933829623740166426e-01
2.403471269644796848e-01
5.906276148743927479e-02
3.040501987561583519e-02
4.323255037888884544e-03
-8.615792915225028992e-02
-2.049748578574508429e-01
4.277494372799992561e-01
-5.984553101006895304e-01
1.022156077902764082e+00
5.233825750183314085e-01
3.362499084323644638e-02
-1.982129188254475594e-01
-2.098048143088817596e-01
7.001589811407029629e-01
1.186322243884205818e-01
2.725468366406857967e-01
-2.172107475344091654e-01
5.404484211467206478e-01
9.899040148593485355e-02
1.144462621305137873e-01
-8.405971268657594919e-01
7.755063017830252647e-01
1.621018324512988329e-01
-7.014943810645490885e-01
-1.895189972128719091e-01
2.506510340608656406e-01
6.292672664858400822e-02
3.072701697237789631e-02
4.001257941126823425e-03
-8.100597560405731201e-02
-2.062628462444990873e-01
4.254954576026648283e-01
-6.052172491326928139e-01
1.015716135967522860e+00
5.111466853413730860e-01
2.557506342418491840e-02
-2.043308636639267206e-01
-2.162447562441229820e-01
6.917870566248893738e-01
1.073623260017484426e-01
2.599889498669654131e-01
-2.217187068890780210e-01
5.372284501791000366e-01
9.319445374421775341e-02
-4.310168197844177485e-01
-8.425291094463318586e-01
7.735743192024528980e-01
1.621018324512988329e-01
-6.180971330031752586e-01
-1.872650175355374813e-01
2.532270108349621296e-01
6.743468600325286388e-02
3.491297923028469086e-02
8.831214392557740211e-03
-6.361813237890601158e-02
-1.988569130189716816e-01
4.338673821184784174e-01
-5.968453246168792248e-01
1.033425976289436221e+00
5.162986388895660639e-01
3.330299374647438526e-02
-1.975689246319234371e-01
-2.117367968894541264e-01
6.969390101730823517e-01
1.083283172920346260e-01
2.632089208345860243e-01
-2.197867243085056543e-01
5.388384356629103422e-01
9.287245664745569229e-02
-7.140522678382694721e-01
-8.480030600912868977e-01
7.703543482348322868e-01
1.575938730966299772e-01
-5.511217368766665459e-01
-1.924169710837304592e-01
2.496850427705794573e-01
6.099474406801164150e-02
2.718504890799522400e-02
3.035266650840640068e-03
-6.426212657243013382e-02
-2.046528607606887817e-01
4.267834459897130728e-01
-6.032852665521204472e-01
1.038899926934391260e+00
5.069607230834662914e-01
3.040501987561583519e-02
-2.017548868898302317e-01
-2.143127736635506153e-01
6.979050014633685350e-01
1.038203579373657703e-01
2.603109469637274742e-01
-2.188207330182194710e-01
5.391604327596724033e-01
9.770241309888660908e-02
-8.341571849305182695e-01
-8.409191239625215530e-01
7.787262727506458759e-01
1.646778092253953218e-01
-5.079741259105503559e-01
-1.859770291484892368e-01
2.587009614799171686e-01
6.646869471296668053e-02
3.265899955295026302e-02
7.543226005509495735e-03
-5.460221366956830025e-02
-1.988569130189716816e-01
4.329013908281922340e-01
-5.984553101006895304e-01
1.045017871772870421e+00
5.111466853413730860e-01
3.008302277885377407e-02
-2.027208781801164150e-01
-2.168887504376471043e-01
7.072429172694683075e-01
9.770241309888660908e-02
2.548369963187724352e-01
-2.265486633405089378e-01
5.340084792114794254e-01
8.739850600250065327e-02
-8.927606565412133932e-01
-8.467150717042386532e-01
7.690663598477840424e-01
1.546958992257714272e-01
-5.008901897817850113e-01
-1.949929478578269482e-01
2.503290369641035795e-01
6.035074987448751926e-02
2.460907213389873505e-02
4.323255037888884544e-03
-6.136415270157158375e-02
-2.023988810833543539e-01
4.274274401832371950e-01
-5.974893188104033470e-01
1.048881836934015155e+00
5.114686824381351471e-01
3.201500535942614079e-02
-2.030428752768784761e-01
-2.127027881797403097e-01
7.313926995266228914e-01
1.054303434211760759e-01
2.641749121248722076e-01
-2.175327446311712265e-01
5.423804037272930145e-01
9.673642180860042572e-02
-9.056405404116958380e-01
-8.415631181560456753e-01
7.738963162992149591e-01
1.566278818063437939e-01
-4.899422884918749332e-01
-1.885530059225857258e-01
2.561249847058206797e-01
6.163873826153576374e-02
7.221228908747434616e-03
4.323255037888884544e-03
-5.943217012099921703e-02
-2.046528607606887817e-01
4.267834459897130728e-01
-5.994213013909757137e-01
1.043085889192298055e+00
5.043847463093698025e-01
2.911703148856759071e-02
-2.136687794700264931e-01
-2.197867243085056543e-01
7.342906733974814415e-01
9.609242761507630348e-02
2.567689788993448019e-01
-2.220407039858400822e-01
5.401264240499585867e-01
9.190646535716950893e-02
-9.172324358951300383e-01
-8.447830891236662865e-01
7.787262727506458759e-01
1.543739021290093660e-01
-4.857563262339681387e-01
-1.882310088258236647e-01
2.561249847058206797e-01
6.453671213239431381e-02
-1.596256205812096596e-02
9.797205682843923569e-03
-5.202623689547181129e-02
-1.995009072124958038e-01
4.593051527626812458e-01
-5.926593623589724302e-01
1.052101807901635766e+00
5.121126766316592693e-01
3.909894148819148540e-02
-2.104488085024058819e-01
-2.146347707603126764e-01
7.420186037197709084e-01
1.015663782600313425e-01
2.583789643831551075e-01
-2.062628462444990873e-01
5.433463950175791979e-01
9.126247116364538670e-02
-9.172324358951300383e-01
-8.405971268657594919e-01
7.777602814603596926e-01
1.495439456775784492e-01
-4.909082797821611166e-01
-1.959589391481131315e-01
2.448550863191485405e-01
5.584279051981866360e-02
-3.721437044441699982e-02
2.713269554078578949e-03
-6.233014399185776711e-02
-2.081948288250714540e-01
4.789469756651669741e-01
-5.994213013909757137e-01
1.046949854353442788e+00
5.066387259867042303e-01
5.262281955219805241e-02
-2.165667533408850431e-01
-2.168887504376471043e-01
7.429845950100570917e-01
9.770241309888660908e-02
2.580569672863930464e-01
-1.862990262452512980e-01
5.449563805013895035e-01
9.609242761507630348e-02
-9.127244765404611826e-01
-7.758757104165852070e-01
7.899961711373180151e-01
1.575938730966299772e-01
-4.857563262339681387e-01
-1.862990262452512980e-01
2.545149992220103741e-01
5.455480213277041912e-02
-3.818036173470318317e-02
7.543226005509495735e-03
-5.492421076633036137e-02
-2.027208781801164150e-01
4.979448043741285801e-01
-5.958793333265930414e-01
1.048559839837253094e+00
5.059947317931801081e-01
7.709459890611469746e-02
-2.191427301149815321e-01
-2.184987359214574099e-01
7.423406008165329695e-01
9.512643632479012012e-02
2.545149992220103741e-01
-1.750291278585791588e-01
5.385164385661482811e-01
8.804250019602477551e-02
-9.191644184757024050e-01
-7.008503868710249662e-01
7.793702669441699982e-01
1.505099369678646326e-01
-4.909082797821611166e-01
-1.930609652772545815e-01
2.545149992220103741e-01
4.070892697200179100e-02
-4.462030366994440556e-02
2.069275360554456711e-03
-6.007616431452333927e-02
-2.104488085024058819e-01
5.066387259867042303e-01
-5.939473507460206747e-01
1.050813819514587522e+00
5.124346737284213305e-01
9.319445374421775341e-02
-2.136687794700264931e-01
-2.133467823732644320e-01
7.455605717841535807e-01
1.047863492276519537e-01
2.667508888989686966e-01
-1.602172614075243473e-01
5.443123863078653812e-01
9.512643632479012012e-02
-9.503981368616223335e-01
-6.393489413894712925e-01
7.845222204923629761e-01
1.550178963225334883e-01
-4.854343291372060776e-01
-1.917729768902063370e-01
3.018485724460333586e-01
3.845494729466736317e-02
-4.655228625051677227e-02
1.747278263792395592e-03
-5.975416721776127815e-02
-2.162447562441229820e-01
5.024527637287974358e-01
-5.990993042942136526e-01
1.043407886289060116e+00
5.108246882446110249e-01
9.126247116364538670e-02
-2.210747126955538988e-01
-2.184987359214574099e-01
7.410526124294847250e-01
9.319445374421775341e-02
2.615989353507757187e-01
-1.615052497945725918e-01
5.414144124370068312e-01
9.158446826040744781e-02
-1.067283082986250520e+00
-6.168091446161270142e-01
7.870981972664594650e-01
1.537299079354852438e-01
-4.835023465566337109e-01
-1.895189972128719091e-01
3.771958930883556604e-01
4.199691535905003548e-02
-4.301031818613409996e-02
8.831214392557740211e-03
-5.460221366956830025e-02
-2.098048143088817596e-01
5.153326475992798805e-01
-5.913713739719241858e-01
1.052423804998397827e+00
5.220945866312831640e-01
9.931239858269691467e-02
-2.146347707603126764e-01
-2.152787649538367987e-01
7.452385746873915195e-01
6.679069180972874165e-02
2.702928569633513689e-01
-1.605392585042864084e-01
5.439903892111033201e-01
8.997448277659714222e-02
-1.177084092982113361e+00
-6.065052375197410583e-01
7.813022495247423649e-01
1.498659427743405104e-01
-4.838243436533957720e-01
-1.966029333416372538e-01
4.190555156674236059e-01
3.265899955295026302e-02
-5.041625141166150570e-02
7.812869735062122345e-04
-6.104215560480952263e-02
-2.181767388246953487e-01
5.076047172769904137e-01
-5.994213013909757137e-01
1.047593848546966910e+00
5.162986388895660639e-01
9.351645084097981453e-02
-2.188207330182194710e-01
-2.197867243085056543e-01
7.413746095262467861e-01
5.611243424937129021e-03
2.719028424471616745e-01
-1.560312991496175528e-01
5.439903892111033201e-01
8.772050309926271439e-02
-1.226993642980232835e+00
-5.955573362298309803e-01
7.916061566211283207e-01
1.604918469674885273e-01
-4.677244888152927160e-01
-1.866210233420133591e-01
4.480352543760091066e-01
4.038692987523972988e-02
-4.526429786346852779e-02
-4.011234431527554989e-02
-5.782218463718891144e-02
-2.130247852765023708e-01
5.095366998575627804e-01
-5.952353391330689192e-01
1.057253761449828744e+00
5.191966127604246140e-01
9.866840438917279243e-02
-2.178547417279332876e-01
-2.184987359214574099e-01
7.375106443651020527e-01
-4.429830657318234444e-02
2.638529150281101465e-01
-1.621492439880967140e-01
5.385164385661482811e-01
7.065465697087347507e-02
-1.260803338140249252e+00
-6.003872926812618971e-01
7.835562292020767927e-01
1.598478527739644051e-01
-4.748084249440580606e-01
-1.943489536643028259e-01
4.547971934080123901e-01
3.362499084323644638e-02
-4.623028915375471115e-02
-1.586072759237140417e-01
-5.717819044366478920e-02
-2.152787649538367987e-01
5.111466853413730860e-01
-5.833214465528726578e-01
1.061761720804497600e+00
5.227385808248072863e-01
1.041423550341278315e-01
-2.168887504376471043e-01
-2.110928026959300041e-01
7.336466792039573193e-01
-5.750018754042685032e-02
2.754448105115443468e-01
-1.528113281819969416e-01
5.681401714682579041e-01
6.904467148706316948e-02
-1.265955291688442230e+00
-5.965233275201171637e-01
7.858102088794112206e-01
1.733717308379709721e-01
-4.696564713958650827e-01
-1.901629914063960314e-01
4.593051527626812458e-01
3.620096761733293533e-02
-4.880626592785120010e-02
-2.619683439843356609e-01
-6.200814689509570599e-02
-2.217187068890780210e-01
5.043847463093698025e-01
-5.640016207471489906e-01
1.054355787578970194e+00
5.162986388895660639e-01
9.609242761507630348e-02
-2.471564775332808495e-01
-2.207527155987918377e-01
7.094968969468027353e-01
-7.714201044291257858e-02
2.670728859957307577e-01
-1.602172614075243473e-01
6.479954514652490616e-01
6.099474406801164150e-02
-1.273361224913969636e+00
-6.016752810683101416e-01
7.825902379117906094e-01
1.810996611602604389e-01
-4.696564713958650827e-01
-1.875870146322995424e-01
4.634911150205880404e-01
4.070892697200179100e-02
-4.462030366994440556e-02
-3.076919317245483398e-01
-5.267023108899593353e-02
-2.117367968894541264e-01
5.169426330830901861e-01
-5.334118965547531843e-01
1.064981691772118211e+00
5.253145575989037752e-01
1.041423550341278315e-01
-2.809661726932972670e-01
-2.078728317283093929e-01
7.075649143662303686e-01
-7.166805979795753956e-02
2.728688337374478579e-01
-1.598952643107622862e-01
7.410526124294847250e-01
6.357072084210813046e-02
-1.276259198784828186e+00
-6.007092897780239582e-01
7.842002233956009150e-01
1.791676785796880722e-01
-4.725544452667236328e-01
-1.959589391481131315e-01
4.586611585691571236e-01
3.459098213352262974e-02
-4.945026012137532234e-02
-3.386036530137062073e-01
-5.975416721776127815e-02
-2.181767388246953487e-01
5.121126766316592693e-01
-5.292259342968463898e-01
1.056287770159542561e+00
5.208065982442349195e-01
9.738041600212454796e-02
-3.179958388209342957e-01
-2.020768839865922928e-01
7.024129608180373907e-01
-7.521002786234021187e-02
2.706148540601134300e-01
-1.611832526978105307e-01
7.928941450081765652e-01
6.357072084210813046e-02
-1.270785248139873147e+00
-5.945913449395447969e-01
7.938601362984627485e-01
1.891495885793119669e-01
-4.670804946217685938e-01
-1.885530059225857258e-01
4.612371353432536125e-01
4.135292116552591324e-02
-4.558629496023058891e-02
-3.431116123683750629e-01
-5.524620786309242249e-02
-2.165667533408850431e-01
5.179086243733763695e-01
-5.224639952648431063e-01
1.057575758546590805e+00
5.179086243733763695e-01
9.641442471183836460e-02
-3.369936675298959017e-01
-1.972469275351613760e-01
6.950070275925099850e-01
-8.100597560405731201e-02
2.661068947054445744e-01
-1.698771743103861809e-01
8.086720027495175600e-01
5.616478761658072472e-02
-1.277869184268638492e+00
-6.019972781650722027e-01
7.874201943632215261e-01
1.839976350311189890e-01
-4.735204365570098162e-01
-1.937049594707787037e-01
4.564071788918226957e-01
4.328490374609827995e-02
-5.009425431489944458e-02
-3.489075601100921631e-01
-6.297413818538188934e-02
-2.107708055991679430e-01
5.195186098571866751e-01
-5.227859923616051674e-01
1.061439723707735538e+00
5.211285953409969807e-01
9.931239858269691467e-02
-3.369936675298959017e-01
-1.850110378582030535e-01
7.011249724309891462e-01
-7.682001334615051746e-02
2.693268656730651855e-01
-1.666572033427655697e-01
8.215518866200000048e-01
6.196073535829782486e-02
-1.269497259752824903e+00
-5.990993042942136526e-01
7.932161421049386263e-01
1.846416292246431112e-01
-4.703004655893892050e-01
-1.920949739869683981e-01
4.589831556659191847e-01
5.552079342305660248e-02
-4.848426883108913898e-02
-3.527715252712368965e-01
-6.233014399185776711e-02
-1.998229043092578650e-01
5.166206359863281250e-01
-5.256839662324637175e-01
1.054033790482208133e+00
5.092147027608007193e-01
9.480443922802805901e-02
-3.456875891424715519e-01
-1.904849885031580925e-01
6.982269985601305962e-01
-8.132797270081937313e-02
2.493630456738173962e-01
-1.737411394715309143e-01
8.234838692005723715e-01
5.841876729391515255e-02
-1.241805509431287646e+00
-5.981333130039274693e-01
7.906401653308421373e-01
1.862516147084534168e-01
-4.677244888152927160e-01
-1.904849885031580925e-01
4.660670917946845293e-01
6.357072084210813046e-02
-4.204432689584791660e-02
-3.453655920457094908e-01
-5.524620786309242249e-02
-1.776051046326756477e-01
5.269245430827140808e-01
-5.179560359101742506e-01
1.062405714998021722e+00
5.088927056640386581e-01
1.002783898729830980e-01
-3.415016268845647573e-01
-1.840450465679168701e-01
7.008029753342270851e-01
-7.617601915262639523e-02
2.374491530936211348e-01
-1.730971452780067921e-01
8.250938546843826771e-01
5.584279051981866360e-02
-1.131682502338662744e+00
-6.013532839715480804e-01
7.867762001696974039e-01
1.827096466440707445e-01
-3.981731159146875143e-01
-1.959589391481131315e-01
4.612371353432536125e-01
5.487679922953248024e-02
-4.945026012137532234e-02
-3.534155194647610188e-01
-7.102406560443341732e-02
-1.782490988261997700e-01
5.198406069539487362e-01
-5.208540097810328007e-01
1.054999781772494316e+00
4.921488566324114799e-01
9.738041600212454796e-02
-3.456875891424715519e-01
-1.875870146322995424e-01
6.991929898504167795e-01
-7.875199592672288418e-02
2.274672430939972401e-01
-1.685891859233379364e-01
8.283138256520032883e-01
6.131674116477370262e-02
-1.015441550407558680e+00
-5.952353391330689192e-01
7.941821333952248096e-01
1.904375769663602114e-01
-1.901629914063960314e-01
-1.879090117290616035e-01
4.718630395364016294e-01
6.357072084210813046e-02
-4.301031818613409996e-02
-3.456875891424715519e-01
-7.553202495910227299e-02
-1.711651626974344254e-01
5.230605779215693474e-01
-5.186000301036983728e-01
1.050169825321063399e+00
4.924708537291735411e-01
9.866840438917279243e-02
-3.437556065618991852e-01
-1.872650175355374813e-01
6.956510217860341072e-01
-8.229396399110555649e-02
2.181293272878974676e-01
-1.766391133423894644e-01
8.231618721038103104e-01
5.616478761658072472e-02
-9.597360526677221060e-01
-6.013532839715480804e-01
7.906401653308421373e-01
1.856076205149292946e-01
-1.725055044516921043e-02
-1.937049594707787037e-01
4.718630395364016294e-01
6.002875277772545815e-02
-4.784027463756501675e-02
-3.559914962388575077e-01
-8.680192334577441216e-02
-1.730971452780067921e-01
5.237045721150934696e-01
-5.166680475231260061e-01
1.044373877579346299e+00
4.931148479226976633e-01
1.038203579373657703e-01
-3.395696443039923906e-01
-1.808250756002962589e-01
6.882450885605067015e-01
-7.327804528176784515e-02
2.252132634166628122e-01
-1.660132091492414474e-01
8.308898024260997772e-01
6.518070632591843605e-02
-9.262483546044677496e-01
-5.945913449395447969e-01
7.935381392017006874e-01
1.904375769663602114e-01
7.838258729316294193e-02
-1.901629914063960314e-01
4.715410424396395683e-01
6.002875277772545815e-02
-4.977225721813738346e-02
-3.630754323676228523e-01
-8.873390592634677887e-02
-1.753511249553412199e-01
5.179086243733763695e-01
-5.256839662324637175e-01
1.027308031450957060e+00
4.866749059874564409e-01
9.609242761507630348e-02
-3.476195717230439186e-01
-1.872650175355374813e-01
6.080678114667534828e-01
-8.003998431377112865e-02
2.168413389008492231e-01
-1.714871597941964865e-01
8.267038401681929827e-01
5.906276148743927479e-02
-9.191644184757024050e-01
-6.007092897780239582e-01
7.909621624276041985e-01
1.888275914825499058e-01
1.189542214851826429e-01
-1.866210233420133591e-01
4.763709988910704851e-01
6.518070632591843605e-02
-4.397630947642028332e-02
-3.633974294643849134e-01
-8.132797270081937313e-02
-1.669792004395276308e-01
5.278905343730002642e-01
-5.157020562328398228e-01
1.034713964676484466e+00
4.960128217935562134e-01
1.022103724535554647e-01
-3.389256501104682684e-01
-1.782490988261997700e-01
5.217725895345211029e-01
-7.392203947529196739e-02
2.219932924490422010e-01
-1.698771743103861809e-01
8.373297443613409996e-01
6.228273245505988598e-02
-9.159444475080817938e-01
-6.000652955844998360e-01
7.887081827502697706e-01
1.852856234181672335e-01
1.321561024524271488e-01
-1.946709507610648870e-01
4.702530540525913239e-01
5.680878181010484695e-02
-8.036198141053318977e-02
-3.720913510769605637e-01
-9.098788560368120670e-02
-1.730971452780067921e-01
5.214505924377590418e-01
-5.205320126842707396e-01
1.028918016934767365e+00
4.857089146971702576e-01
9.705841890536248684e-02
-3.447215978521853685e-01
-1.856550320517271757e-01
4.692870627623051405e-01
-7.714201044291257858e-02
2.207053040619939566e-01
-1.689111830200999975e-01
8.466676601674407721e-01
6.518070632591843605e-02
-9.085385142825543880e-01
-5.923373652622103691e-01
7.874201943632215261e-01
1.917255653534084558e-01
1.447139892261475325e-01
-1.853330349549651146e-01
4.783029814716428518e-01
6.485870922915637493e-02
-1.164256562478840351e-01
-3.679053888190537691e-01
-8.486994076520204544e-02
-1.660132091492414474e-01
5.153326475992798805e-01
-5.166680475231260061e-01
1.029562011128291488e+00
4.924708537291735411e-01
1.009223840665072203e-01
-3.443996007554233074e-01
-1.869430204387754202e-01
4.396633298601955175e-01
-8.164996979758143425e-02
2.145873592235147953e-01
-1.644032236654311419e-01
8.463456630706787109e-01
5.874076439067721367e-02
-9.162664446048438549e-01
-5.942693478427827358e-01
7.755063017830252647e-01
1.843196321278810501e-01
1.392400385811924934e-01
-1.914509797934442759e-01
4.705750511493533850e-01
5.906276148743927479e-02
-1.521673339884728193e-01
-3.753113220445811749e-01
-9.002189431339502335e-02
-1.701991714071482420e-01
5.014867724385112524e-01
-5.173120417166501284e-01
1.030206005321815610e+00
4.924708537291735411e-01
1.176662330981343985e-01
-3.376376617234200239e-01
-1.795370872132480145e-01
4.370873530860990286e-01
-7.295604818500578403e-02
2.242472721263766289e-01
-1.441174065694212914e-01
8.543955904897302389e-01
6.389271793887019157e-02
-9.114364881534129381e-01
-5.301919255871325731e-01
7.767942901700735092e-01
1.868956089019775391e-01
1.447139892261475325e-01
-1.901629914063960314e-01
4.708970482461154461e-01
5.487679922953248024e-02
-1.650472178589552641e-01
-3.746673278510570526e-01
-9.195387689396739006e-02
-1.747071307618170977e-01
4.944028363097459078e-01
-5.237519836518913507e-01
1.028274022741243243e+00
4.857089146971702576e-01
1.253941634204238653e-01
-3.469755775295197964e-01
-1.875870146322995424e-01
4.261394517961889505e-01
-8.100597560405731201e-02
2.174853330943733454e-01
-1.386434559244662523e-01
8.482776456512510777e-01
5.841876729391515255e-02
-9.143344620242714882e-01
-4.352027820423245430e-01
7.706763453315943480e-01
1.862516147084534168e-01
1.453579834196716547e-01
-1.891970001161098480e-01
4.657450946979224682e-01
5.713077890686690807e-02
-1.650472178589552641e-01
-3.691933772061020136e-01
-8.422594657167792320e-02
-1.653692149557173252e-01
4.973008101806044579e-01
-5.153800591360777617e-01
1.032459984999150038e+00
4.953688276000320911e-01
1.414940182585269213e-01
-3.379596588201820850e-01
-1.808250756002962589e-01
4.329013908281922340e-01
-7.682001334615051746e-02
2.232812808360904455e-01
-1.302715314086526632e-01
8.518196137156337500e-01
6.067274697124958038e-02
-9.146564591210335493e-01
-3.688713801093399525e-01
7.713203395251184702e-01
1.830316437408328056e-01
1.398840327747166157e-01
-1.962809362448751926e-01
3.675359801854938269e-01
4.875885439105331898e-02
-1.747071307618170977e-01
-3.733793394640088081e-01
-8.969989721663296223e-02
-1.730971452780067921e-01
4.911828653421252966e-01
-5.166680475231260061e-01
1.029884008225053549e+00
4.895728798583149910e-01
1.392400385811924934e-01
-3.421456210780888796e-01
-1.859770291484892368e-01
4.267834459897130728e-01
-7.778600463643670082e-02
2.216712953522801399e-01
-1.241535865701735020e-01
8.579375585541129112e-01
6.518070632591843605e-02
-9.040305549278855324e-01
-3.279777488205581903e-01
7.780822785571217537e-01
1.933355508372187614e-01
1.505099369678646326e-01
-1.862990262452512980e-01
2.229592837393283844e-01
5.358881084248423576e-02
-1.705211685039103031e-01
-3.711253597866743803e-01
-8.680192334577441216e-02
-1.705211685039103031e-01
4.931148479226976633e-01
-5.195660213939845562e-01
1.030206005321815610e+00
4.866749059874564409e-01
1.389180414844304323e-01
-3.447215978521853685e-01
-1.869430204387754202e-01
4.229194808285683393e-01
-1.016137897968292236e-01
2.149093563202768564e-01
-1.293055401183664799e-01
8.473116543609648943e-01
5.745277600362896919e-02
-9.040305549278855324e-01
-3.244357807561755180e-01
7.681003685574978590e-01
1.814216582570225000e-01
1.447139892261475325e-01
-1.943489536643028259e-01
1.112262911628931761e-01
4.843685729429125786e-02
-1.721311539877206087e-01
-3.762773133348673582e-01
-9.098788560368120670e-02
-1.714871597941964865e-01
4.892508827615529299e-01
-5.214980039745569229e-01
1.024732054676860571e+00
4.915048624388873577e-01
1.447139892261475325e-01
-3.395696443039923906e-01
-1.814690697938203812e-01
4.309694082476198673e-01
-1.322035139892250299e-01
2.226372866425663233e-01
-1.238315894734114408e-01
8.547175875864923000e-01
7.001066277734935284e-02
-8.979126100894063711e-01
-3.160638562403619289e-01
7.751843046862632036e-01
1.875396030955016613e-01
1.524419195484369993e-01
-1.901629914063960314e-01
6.485870922915637493e-02
5.036883987486362457e-02
-1.734191423747688532e-01
-4.400327384937554598e-01
-9.291986818425357342e-02
-1.743851336650550365e-01
4.879628943745046854e-01
-5.224639952648431063e-01
1.017004124354571104e+00
4.866749059874564409e-01
1.385960443876683712e-01
-3.476195717230439186e-01
-1.895189972128719091e-01
4.232414779253304005e-01
-1.689111830200999975e-01
2.181293272878974676e-01
-1.273735575377941132e-01
8.502096282318234444e-01
7.097665406763553619e-02
-8.995225955732166767e-01
-3.144538707565516233e-01
7.732523221056908369e-01
1.949455363210290670e-01
1.559838876128196716e-01
-1.879090117290616035e-01
4.650487471371889114e-02
5.391080793924629688e-02
-1.689111830200999975e-01
-6.026412723585963249e-01
-8.454794366843998432e-02
-1.669792004395276308e-01
4.924708537291735411e-01
-5.234299865551292896e-01
1.019258104031905532e+00
4.931148479226976633e-01
1.440699950326234102e-01
-3.408576326910406351e-01
-1.808250756002962589e-01
4.267834459897130728e-01
-1.798590843100100756e-01
2.210273011587560177e-01
-1.264075662475079298e-01
8.701734482310712337e-01
7.516261632554233074e-02
-8.992005984764546156e-01
-3.167078504338860512e-01
7.700323511380702257e-01
2.010634811595082283e-01
1.505099369678646326e-01
-1.946709507610648870e-01
3.330299374647438526e-02
4.618287761695683002e-02
-1.740631365682929754e-01
-7.697577655781060457e-01
-9.227587399072945118e-02
-1.750291278585791588e-01
4.889288856647908688e-01
-5.427498123608529568e-01
1.016682127257809043e+00
4.905388711486011744e-01
1.411720211617648602e-01
-3.556694991420954466e-01
-1.834010523743927479e-01
4.190555156674236059e-01
-1.856550320517271757e-01
2.200613098684698343e-01
-1.251195778604596853e-01
9.526047050021588802e-01
8.031456987373530865e-02
-8.921166623476892710e-01
-3.083359259180724621e-01
7.793702669441699982e-01
2.165193418040871620e-01
1.585598643869161606e-01
-1.869430204387754202e-01
3.587897052057087421e-02
5.294481664896011353e-02
-1.705211685039103031e-01
-8.467150717042386532e-01
-8.551393495872616768e-02
-1.682671888265758753e-01
4.937588421162217855e-01
-5.517657310701906681e-01
1.017970115644857287e+00
4.905388711486011744e-01
1.421380124520510435e-01
-3.775653017219156027e-01
-1.792150901164859533e-01
4.129375708289444447e-01
-1.930609652772545815e-01
2.149093563202768564e-01
-1.289835430216044188e-01
1.034391967579722404e+00
7.741659600287675858e-02
-9.004885868635028601e-01
-3.173518446274101734e-01
7.758282988797873259e-01
2.129773737397044897e-01
1.550178963225334883e-01
-1.927389681804925203e-01
3.104901406913995743e-02
4.875885439105331898e-02
-1.730971452780067921e-01
-8.866427117027342319e-01
-8.744591753929853439e-02
-1.698771743103861809e-01
4.931148479226976633e-01
-5.588496671989560127e-01
1.020546092418953776e+00
4.918268595356494188e-01
1.476119630970060825e-01
-3.856152291409671307e-01
-1.566752933431416750e-01
4.203435040544718504e-01
-1.869430204387754202e-01
2.239252750296145678e-01
-1.222216039896011353e-01
1.091707450803369284e+00
8.321254374459385872e-02
-8.953366333153098822e-01
-3.131658823695033789e-01
7.845222204923629761e-01
2.194173156749457121e-01
1.579158701933920383e-01
-1.901629914063960314e-01
3.201500535942614079e-02
4.811486019752919674e-02
-1.737411394715309143e-01
-9.056405404116958380e-01
-9.002189431339502335e-02
-1.753511249553412199e-01
4.931148479226976633e-01
-5.688315771985799074e-01
1.010886179516091943e+00
4.869969030842185020e-01
1.392400385811924934e-01
-4.030030723661184311e-01
-1.531333252787590027e-01
4.168015359900891781e-01
-1.927389681804925203e-01
2.184513243846595287e-01
-1.289835430216044188e-01
1.110061285318806767e+00
8.128056116402149200e-02
-8.956586304120719433e-01
-3.115558968856930733e-01
7.858102088794112206e-01
2.161973447073251009e-01
1.572718759998679161e-01
-1.872650175355374813e-01
3.298099664971232414e-02
4.586088052019476891e-02
-1.676231946330517530e-01
-9.030645636375993490e-01
-8.229396399110555649e-02
-1.582852788269519806e-01
5.076047172769904137e-01
-5.575616788119077682e-01
1.021834080806002021e+00
4.950468305032700300e-01
1.469679689034819603e-01
-4.001050984952598810e-01
-1.405754385050386190e-01
4.164795388933271170e-01
-1.911289826966822147e-01
2.155533505138009787e-01
-1.247975807636976242e-01
1.120043195318430662e+00
7.934857858344912529e-02
-8.995225955732166767e-01
-3.125218881759792566e-01
7.816242466215044260e-01
2.155533505138009787e-01
1.517979253549128771e-01
-1.956369420513510704e-01
2.493106923066079617e-02
3.233700245618820190e-02
-1.743851336650550365e-01
-9.130464736372232437e-01
-9.227587399072945118e-02
-1.531333252787590027e-01
5.024527637287974358e-01
-5.665775975212454796e-01
1.015394138870760798e+00
4.853869176004081964e-01
1.414940182585269213e-01
-4.039690636564046144e-01
-1.405754385050386190e-01
4.132595679257065058e-01
-1.911289826966822147e-01
1.968775189016014338e-01
-1.257635720539838076e-01
1.124229157576337457e+00
8.385653793811798096e-02
-8.550869962200522423e-01
-3.047939578536897898e-01
7.909621624276041985e-01
2.226372866425663233e-01
1.588818614836782217e-01
-1.875870146322995424e-01
-5.980652058497071266e-03
3.491297923028469086e-02
-1.689111830200999975e-01
-9.078945200890302658e-01
-8.551393495872616768e-02
-1.357454820536077023e-01
5.040627492126077414e-01
-5.643236178439110518e-01
1.015072141773998737e+00
4.795909698586910963e-01
1.402060298714786768e-01
-4.075110317207872868e-01
-1.437954094726592302e-01
4.116495824418962002e-01
-1.959589391481131315e-01
1.640338150318711996e-01
-1.305935285054147243e-01
1.121331183705478907e+00
7.612860761582851410e-02
-7.246781720314174891e-01
-3.121998910792171955e-01
7.835562292020767927e-01
2.158753476105630398e-01
1.695077656768262386e-01
-1.914509797934442759e-01
-7.746400753967463970e-02
3.040501987561583519e-02
-1.753511249553412199e-01
-9.130464736372232437e-01
-9.291986818425357342e-02
-1.328475081827491522e-01
5.043847463093698025e-01
-5.623916352633386850e-01
1.019902098225429654e+00
4.779809843748807907e-01
1.450359863229095936e-01
-4.010710897855460644e-01
-1.370334704406559467e-01
4.174455301836133003e-01
-1.872650175355374813e-01
1.572718759998679161e-01
-1.241535865701735020e-01
1.126483137253671885e+00
8.063656697049736977e-02
-5.685095801018178463e-01
-3.051159549504518509e-01
7.883861856535077095e-01
2.194173156749457121e-01
2.255352605134248734e-01
-1.895189972128719091e-01
-1.206116185057908297e-01
3.104901406913995743e-02
-1.740631365682929754e-01
-9.120804823469370604e-01
-9.742782753892242908e-02
-1.344574936665594578e-01
4.992327927611768246e-01
-5.672215917147696018e-01
1.024732054676860571e+00
4.686430685687810183e-01
1.379520501941442490e-01
-4.071890346240252256e-01
-1.428294181823730469e-01
4.126155737321823835e-01
-1.901629914063960314e-01
1.450359863229095936e-01
-1.286615459248423576e-01
1.121331183705478907e+00
8.192455535754561424e-02
-4.864003204274922609e-01
-3.086579230148345232e-01
7.845222204923629761e-01
2.197393127717077732e-01
2.757668076083064079e-01
-1.882310088258236647e-01
-1.412194326985627413e-01
3.298099664971232414e-02
-1.685891859233379364e-01
-9.066065317019820213e-01
-8.905590302310883999e-02
-1.238315894734114408e-01
5.098586969543248415e-01
-5.604596526827663183e-01
1.049525831127539277e+00
4.754050076007843018e-01
1.466459718067198992e-01
-4.010710897855460644e-01
-1.370334704406559467e-01
4.029556608293205500e-01
-1.814690697938203812e-01
1.463239747099578381e-01
-1.241535865701735020e-01
1.124551154673099518e+00
7.902658148668706417e-02
-4.480826659128069878e-01
-3.093019172083586454e-01
7.816242466215044260e-01
2.145873592235147953e-01
2.966966188978403807e-01
-1.953149449545890093e-01
-1.557093020528554916e-01
2.557506342418491840e-02
-1.763171162456274033e-01
-9.207744039595127106e-01
-9.839381882920861244e-02
-1.305935285054147243e-01
5.014867724385112524e-01
-5.649676120374351740e-01
1.053067799191921949e+00
4.679990743752568960e-01
1.392400385811924934e-01
-4.071890346240252256e-01
-1.399314443115144968e-01
3.005605840589851141e-01
-1.853330349549651146e-01
1.443919921293854713e-01
-1.264075662475079298e-01
1.135177058866247535e+00
8.450053213164210320e-02
-4.290848372038453817e-01
-3.035059694666415453e-01
7.906401653308421373e-01
2.229592837393283844e-01
3.173044330906122923e-01
-1.872650175355374813e-01
-1.508793456014245749e-01
3.491297923028469086e-02
-1.711651626974344254e-01
-9.230283836368471384e-01
-9.195387689396739006e-02
-1.254415749572217464e-01
5.069607230834662914e-01
-5.620696381665766239e-01
1.057897755643352866e+00
4.686430685687810183e-01
1.421380124520510435e-01
-4.062230433337390423e-01
-1.402534414082765579e-01
1.669317889027297497e-01
-1.885530059225857258e-01
1.418160153552889824e-01
-1.283395488280802965e-01
1.163834800478070974e+00
7.870458438992500305e-02
-4.310168197844177485e-01
-3.086579230148345232e-01
7.787262727506458759e-01
2.187733214814215899e-01
3.140844621229916811e-01
-1.917729768902063370e-01
-1.573192875366657972e-01
2.943902858532965183e-02
-1.904849885031580925e-01
-9.272143458947539330e-01
-9.678383334539830685e-02
-1.251195778604596853e-01
5.088927056640386581e-01
-5.611036468762904406e-01
1.064659694675356150e+00
4.747610134072601795e-01
1.463239747099578381e-01
-4.017150839790701866e-01
-1.351014878600835800e-01
9.480443922802805901e-02
-1.830790552776306868e-01
1.505099369678646326e-01
-1.231875952798873186e-01
1.212778359185904264e+00
8.385653793811798096e-02
-4.229668923653662205e-01
-3.051159549504518509e-01
7.745403104927390814e-01
2.194173156749457121e-01
3.208464011549949646e-01
-1.901629914063960314e-01
-1.550653078593313694e-01
2.976102568209171295e-02
-2.223627010826021433e-01
-9.294683255720883608e-01
-9.742782753892242908e-02
-1.296275372151285410e-01
5.156546446960419416e-01
-5.668995946180075407e-01
1.058863746933639050e+00
4.692870627623051405e-01
1.456799805164337158e-01
-4.126629852689802647e-01
-1.483033688273280859e-01
5.197882535867393017e-02
-1.853330349549651146e-01
1.440699950326234102e-01
-1.235095923766493797e-01
1.230488199507817626e+00
7.934857858344912529e-02
-4.271528546232730150e-01
-3.054379520472139120e-01
7.632704121060669422e-01
2.187733214814215899e-01
3.205244040582329035e-01
-1.895189972128719091e-01
-1.566752933431416750e-01
3.555697342380881310e-02
-2.342765936627984047e-01
-9.243163720238953829e-01
-8.905590302310883999e-02
-1.218996068928390741e-01
5.417364095337688923e-01
-5.588496671989560127e-01
1.064337697578594089e+00
4.754050076007843018e-01
1.801336698699742556e-01
-4.087990201078355312e-01
-1.463713862467557192e-01
4.070892697200179100e-02
-1.827570581808686256e-01
1.460019776131957769e-01
-1.157816620543599129e-01
1.243046086281538010e+00
8.256854955106973648e-02
-4.252208720427006483e-01
-2.587483730167150497e-01
7.565084730740636587e-01
2.139433650299906731e-01
3.166604388970881701e-01
-1.946709507610648870e-01
-1.586072759237140417e-01
3.104901406913995743e-02
-2.506984455976635218e-01
-9.304343168623745441e-01
-9.742782753892242908e-02
-1.296275372151285410e-01
5.468883630819618702e-01
-5.640016207471489906e-01
1.060795729514211416e+00
4.686430685687810183e-01
2.129773737397044897e-01
-4.120189910754561424e-01
-1.489473630208522081e-01
3.362499084323644638e-02
-1.834010523743927479e-01
1.466459718067198992e-01
-1.086977259255945683e-01
1.252384002087637782e+00
8.546652342192828655e-02
-4.178149388171732426e-01
-1.644032236654311419e-01
7.626264179125428200e-01
2.239252750296145678e-01
3.253543605096638203e-01
-1.824350610841065645e-01
-1.231875952798873186e-01
3.974293568171560764e-02
-2.455464920494705439e-01
-9.239943749271333218e-01
-9.034389141015708447e-02
-1.283395488280802965e-01
5.533283050172030926e-01
-5.614256439730525017e-01
1.061439723707735538e+00
4.734730250202119350e-01
2.374491530936211348e-01
-4.123409881722182035e-01
-1.531333252787590027e-01
3.008302277885377407e-02
-1.891970001161098480e-01
1.427820066455751657e-01
-1.090197230223566294e-01
1.247232048539444804e+00
7.999257277697324753e-02
-4.268308575265109539e-01
-1.132056852802634239e-01
7.542544933967292309e-01
2.165193418040871620e-01
3.176264301873743534e-01
-1.914509797934442759e-01
2.213492982555180788e-01
3.652296471409499645e-02
-2.552064049523323774e-01
-9.268923487979918718e-01
-9.452985366806387901e-02
-1.344574936665594578e-01
5.565482759848237038e-01
-5.598156584892421961e-01
1.065625685965642333e+00
4.789469756651669741e-01
2.509730311576277018e-01
-4.052570520434528589e-01
-1.463713862467557192e-01
3.748895600438117981e-02
-1.795370872132480145e-01
1.508319340646266937e-01
-1.022577839903533459e-01
1.253671990474686027e+00
8.739850600250065327e-02
-4.149169649463146925e-01
-7.714201044291257858e-02
7.590844498481601477e-01
2.203833069652318954e-01
3.227783837355673313e-01
-1.885530059225857258e-01
8.624455179087817669e-01
3.684496181085705757e-02
-2.548844078555703163e-01
-9.320443023461848497e-01
-9.549584495835006237e-02
-1.412194326985627413e-01
5.507523282431066036e-01
-5.659336033277213573e-01
1.055321778869256377e+00
4.683210714720189571e-01
2.454990805126726627e-01
-4.165269504301249981e-01
-1.544213136658072472e-01
2.879503439180552959e-02
-1.866210233420133591e-01
1.456799805164337158e-01
-1.080537317320704460e-01
1.250130022410303354e+00
8.031456987373530865e-02
-4.126629852689802647e-01
-6.812609173357486725e-02
7.555424817837774754e-01
2.184513243846595287e-01
3.192364156711846590e-01
-1.862990262452512980e-01
1.323867357568815351e+00
4.103092406876385212e-02
-2.516644368879497051e-01
-9.227063865400850773e-01
-8.680192334577441216e-02
-1.331695052795112133e-01
5.610562353394925594e-01
-5.565956875216215849e-01
1.065947683062404394e+00
4.770149930845946074e-01
2.558029876090586185e-01
-4.084770230110734701e-01
-1.476593746338039637e-01
3.201500535942614079e-02
-1.843670436646789312e-01
1.472899660002440214e-01
-1.029017781838774681e-01
1.251096013700589538e+00
9.029647987335920334e-02
-4.123409881722182035e-01
-6.233014399185776711e-02
7.539324962999671698e-01
2.178073301911354065e-01
3.124744766391813755e-01
-1.943489536643028259e-01
1.542181389173492789e+00
3.362499084323644638e-02
-2.581043788231909275e-01
-9.111144910566508770e-01
-9.034389141015708447e-02
-1.396094472147524357e-01
5.533283050172030926e-01
-5.652896091341972351e-01
1.058863746933639050e+00
4.715410424396395683e-01
2.496850427705794573e-01
-4.129849823657423258e-01
-1.528113281819969416e-01
2.879503439180552959e-02
-1.875870146322995424e-01
1.460019776131957769e-01
-1.045117636676877737e-01
1.252705999184399843e+00
1.086503143887966871e-01
-4.013930868823081255e-01
-5.685619334690272808e-02
7.597284440416842699e-01
2.242472721263766289e-01
3.211683982517570257e-01
-1.856550320517271757e-01
1.642644483363255858e+00
4.038692987523972988e-02
-2.497324543073773384e-01
-8.418851152528077364e-01
-8.680192334577441216e-02
-1.370334704406559467e-01
5.559042817912995815e-01
-5.714075539726763964e-01
1.062083717901259661e+00
4.705750511493533850e-01
2.500070398673415184e-01
-4.100870084948837757e-01
-1.566752933431416750e-01
2.428707503713667393e-02
-1.943489536643028259e-01
1.421380124520510435e-01
-1.096637172158807516e-01
1.197322498541325331e+00
1.115482882596552372e-01
-4.100870084948837757e-01
-6.265214108861982822e-02
7.542544933967292309e-01
2.216712953522801399e-01
3.137624650262296200e-01
-1.911289826966822147e-01
1.672590213362127542e+00
3.942093858495354652e-02
-2.555284020490944386e-01
-7.832816436421126127e-01
-8.841190882958471775e-02
-1.379994617309421301e-01
5.568702730815857649e-01
-5.900833855848759413e-01
1.064981691772118211e+00
4.763709988910704851e-01
2.564469818025827408e-01
-3.975291217211633921e-01
-1.463713862467557192e-01
2.815104019828140736e-02
-1.862990262452512980e-01
1.495439456775784492e-01
-1.032237752806395292e-01
9.777204785495996475e-01
1.270041489042341709e-01
-4.046130578499287367e-01
-5.717819044366478920e-02
7.610164324287325144e-01
2.258572576101869345e-01
3.147284563165158033e-01
-1.898409943096339703e-01
1.690300053684040904e+00
3.555697342380881310e-02
-2.539184165652841330e-01
-7.504379397723823786e-01
-8.905590302310883999e-02
-1.434734123758971691e-01
5.526843108236789703e-01
-6.171311417128890753e-01
1.056609767256304622e+00
4.663890888914465904e-01
2.490410485770553350e-01
-3.862592233344912529e-01
-1.457273920532315969e-01
1.752513600513339043e-02
-1.933829623740166426e-01
1.421380124520510435e-01
-1.080537317320704460e-01
6.962950159795582294e-01
1.241061750333756208e-01
-4.091210172045975924e-01
-6.039816141128540039e-02
7.552204846870154142e-01
2.242472721263766289e-01
3.153724505100399256e-01
-1.901629914063960314e-01
1.698027984006330371e+00
4.264090955257415771e-02
-2.510204426944255829e-01
-7.307961168698966503e-01
-8.261596108786761761e-02
-1.347794907633215189e-01
5.562262788880616426e-01
-6.203511126805096865e-01
1.063693703385069966e+00
4.741170192137360573e-01
2.545149992220103741e-01
-3.695153743028640747e-01
-1.241535865701735020e-01
1.945711858570575714e-02
-1.888750030193477869e-01
1.447139892261475325e-01
-1.051557578612118959e-01
5.359404617920517921e-01
1.244281721301376820e-01
-4.071890346240252256e-01
-6.200814689509570599e-02
7.561864759773015976e-01
2.226372866425663233e-01
3.095765027683228254e-01
-1.956369420513510704e-01
1.690622050780802965e+00
3.362499084323644638e-02
-2.581043788231909275e-01
-7.324061023537069559e-01
-9.130988270044326782e-02
-1.428294181823730469e-01
5.539722992107272148e-01
-6.316210110671818256e-01
1.057253761449828744e+00
4.702530540525913239e-01
2.503290369641035795e-01
-3.640414236579090357e-01
-1.086977259255945683e-01
2.074510697275400162e-02
-1.882310088258236647e-01
1.501879398711025715e-01
-1.025797810871154070e-01
4.679990743752568960e-01
1.311901111621409655e-01
-4.017150839790701866e-01
-5.556820495985448360e-02
7.668123801704496145e-01
2.287552314810454845e-01
3.176264301873743534e-01
-1.853330349549651146e-01
1.698671978199854493e+00
3.684496181085705757e-02
-2.484444659203290939e-01
-7.237121807411313057e-01
-8.390394947491586208e-02
-1.309155256021767855e-01
5.565482759848237038e-01
-6.264690575189888477e-01
1.064659694675356150e+00
4.728290308266878128e-01
2.529050137382000685e-01
-3.630754323676228523e-01
-1.016137897968292236e-01
1.688114181160926819e-02
-1.933829623740166426e-01
1.379520501941442490e-01
-1.083757288288325071e-01
4.332233879249542952e-01
1.205642069689929485e-01
-4.110529997851699591e-01
-6.297413818538188934e-02
7.584404556546360254e-01
2.216712953522801399e-01
3.115084853488951921e-01
-1.924169710837304592e-01
1.697383989812806249e+00
2.493106923066079617e-02
-2.545624107588082552e-01
-7.285421371925622225e-01
-8.841190882958471775e-02
-1.235095923766493797e-01
5.546162934042513371e-01
-6.293670313898473978e-01
1.063693703385069966e+00
4.696090598590672016e-01
2.564469818025827408e-01
-3.582454759161919355e-01
-9.259787108749151230e-02
2.396507794037461281e-02
-1.850110378582030535e-01
1.257161605171859264e-01
-1.022577839903533459e-01
4.264614488929510117e-01
1.289361314848065376e-01
-3.881912059150636196e-01
-5.717819044366478920e-02
7.648803975898772478e-01
2.281112372875213623e-01
3.150504534132778645e-01
-1.875870146322995424e-01
1.765003380132839084e+00
1.816913019865751266e-02
-2.542404136620461941e-01
-7.304741197731345892e-01
-9.420785657130181789e-02
-1.215776097960770130e-01
5.501083340495824814e-01
-6.367729646153748035e-01
1.056609767256304622e+00
4.518992195371538401e-01
2.474310630932450294e-01
-3.650074149481952190e-01
-9.839381882920861244e-02
1.527115632779896259e-02
-1.924169710837304592e-01
8.933048858307301998e-02
-1.086977259255945683e-01
4.180895243771374226e-01
1.241061750333756208e-01
-3.299097314011305571e-01
-6.072015850804746151e-02
7.603724382352083921e-01
2.268232489004731178e-01
2.983066043816506863e-01
-1.888750030193477869e-01
1.888972262386232615e+00
2.267708955332636833e-02
-2.519864339847117662e-01
-7.221021952573210001e-01
-9.839381882920861244e-02
-1.077317346353083849e-01
5.623442237265408039e-01
-6.277570459060370922e-01
1.065625685965642333e+00
4.509332282468676567e-01
2.541930021252483130e-01
-3.566354904323816299e-01
-8.969989721663296223e-02
2.203309535980224609e-02
-1.879090117290616035e-01
7.934857858344912529e-02
-1.025797810871154070e-01
4.168015359900891781e-01
1.244281721301376820e-01
-2.513424397911876440e-01
-6.426212657243013382e-02
7.574744643643498421e-01
2.232812808360904455e-01
2.268232489004731178e-01
-1.937049594707787037e-01
1.972369510447606444e+00
1.720313890837132931e-02
-2.584263759199529886e-01
-7.285421371925622225e-01
-1.254415749572217464e-01
-1.109517056029289961e-01
5.555822846945375204e-01
-6.312990139704197645e-01
1.070133645320311189e+00
4.428833008278161287e-01
2.509730311576277018e-01
-3.621094410773366690e-01
-9.356386237777769566e-02
1.881312439218163490e-02
-1.904849885031580925e-01
7.097665406763553619e-02
-1.048337607644498348e-01
4.203435040544718504e-01
1.308681140653789043e-01
-2.040088665671646595e-01
-5.750018754042685032e-02
7.661683859769254923e-01
2.274672430939972401e-01
1.672537859994918108e-01
-1.859770291484892368e-01
2.025821028510108590e+00
2.364308084361255169e-02
-2.513424397911876440e-01
-7.214582010637968779e-01
-1.373554675374180079e-01
-1.077317346353083849e-01
5.559042817912995815e-01
-6.306550197768956423e-01
1.080437552416697145e+00
4.374093501828610897e-01
2.480750572867691517e-01
-3.621094410773366690e-01
-9.710583044216036797e-02
3.357263747602701187e-03
-1.959589391481131315e-01
6.035074987448751926e-02
-1.109517056029289961e-01
4.129375708289444447e-01
1.266821518074721098e-01
-1.891970001161098480e-01
-6.136415270157158375e-02
7.584404556546360254e-01
2.216712953522801399e-01
1.241061750333756208e-01
-1.895189972128719091e-01
2.038700912380591035e+00
1.688114181160926819e-02
-2.555284020490944386e-01
-7.153402562253177166e-01
-1.479813717305660248e-01
-1.080537317320704460e-01
5.562262788880616426e-01
-6.284010400995612144e-01
1.091707450803369284e+00
4.435272950213402510e-01
2.541930021252483130e-01
-3.559914962388575077e-01
-8.969989721663296223e-02
-5.589020205661654472e-02
-1.879090117290616035e-01
6.840067729353904724e-02
-1.045117636676877737e-01
4.171235330868512392e-01
1.308681140653789043e-01
-1.763171162456274033e-01
-5.621219915337860584e-02
7.645584004931151867e-01
2.287552314810454845e-01
1.102602998726069927e-01
-1.891970001161098480e-01
2.050292807864025235e+00
1.655914471484720707e-02
-2.548844078555703163e-01
-7.053583462256938219e-01
-1.528113281819969416e-01
-1.074097375385463238e-01
5.539722992107272148e-01
-6.351629791315644979e-01
1.087521488545462489e+00
4.348333734087646008e-01
2.461430747061967850e-01
-3.608214526902884245e-01
-9.549584495835006237e-02
-1.663352062460035086e-01
-1.930609652772545815e-01
6.099474406801164150e-02
-1.080537317320704460e-01
3.923297566361725330e-01
1.299021227750927210e-01
-1.782490988261997700e-01
-5.943217012099921703e-02
7.639144062995910645e-01
2.265012518037110567e-01
1.047863492276519537e-01
-1.862990262452512980e-01
2.056088755605742335e+00
2.332108374685049057e-02
-2.449024978559464216e-01
-6.934444536454975605e-01
-1.457273920532315969e-01
-1.029017781838774681e-01
5.575142672751098871e-01
-6.274350488092750311e-01
1.096215410158038139e+00
4.444932863116264343e-01
2.541930021252483130e-01
-3.534155194647610188e-01
-9.034389141015708447e-02
-2.271926575340330601e-01
-1.882310088258236647e-01
6.518070632591843605e-02
-1.051557578612118959e-01
3.652820005081593990e-01
1.308681140653789043e-01
-1.763171162456274033e-01
-6.297413818538188934e-02
7.613384295254945755e-01
2.200613098684698343e-01
9.770241309888660908e-02
-1.943489536643028259e-01
2.046750839799642563e+00
1.527115632779896259e-02
-2.442585036624222994e-01
-7.011723839677870274e-01
-1.531333252787590027e-01
-1.106297085061669350e-01
5.394824298564344645e-01
-6.345189849380403757e-01
1.090741459513083100e+00
4.393413327634334564e-01
2.587009614799171686e-01
-3.514835368841886520e-01
-9.163187979720532894e-02
-2.581043788231909275e-01
-1.914509797934442759e-01
6.389271793887019157e-02
-1.009697956033051014e-01
3.536901050247251987e-01
1.356980705168098211e-01
-1.689111830200999975e-01
-5.234823399223387241e-02
7.755063017830252647e-01
2.297212227713316679e-01
1.041423550341278315e-01
-1.830790552776306868e-01
2.056732749799266458e+00
2.074510697275400162e-02
-2.352425849530845881e-01
-6.924784623552113771e-01
-1.492693601176142693e-01
-1.048337607644498348e-01
5.208065982442349195e-01
-6.300110255833715200e-01
1.094927421770989895e+00
4.399853269569575787e-01
3.018485724460333586e-01
-3.514835368841886520e-01
-9.098788560368120670e-02
-2.771022075321525335e-01
-1.959589391481131315e-01
5.745277600362896919e-02
-1.022577839903533459e-01
3.369462559930980206e-01
1.273261460009962320e-01
-1.779271017294377089e-01
-4.043434141203761101e-02
7.684223656542599201e-01
2.216712953522801399e-01
9.899040148593485355e-02
-1.911289826966822147e-01
2.049648813670501113e+00
1.784713310189545155e-02
-2.368525704368948936e-01
-6.963424275163561106e-01
-1.515233397949486971e-01
-1.045117636676877737e-01
5.050287405028939247e-01
-6.290450342930853367e-01
1.096859404351562262e+00
4.422393066342920065e-01
3.668919859919697046e-01
-3.434336094651371241e-01
-8.905590302310883999e-02
-2.722722510807216167e-01
-1.869430204387754202e-01
6.518070632591843605e-02
-9.034389141015708447e-02
3.424202066380530596e-01
1.340880850329995155e-01
-1.727751481812447309e-01
9.153211489319801331e-03
7.758282988797873259e-01
2.271452459972351789e-01
1.006003869697451591e-01
-1.879090117290616035e-01
2.032582967542111874e+00
1.655914471484720707e-02
-2.400725414045155048e-01
-6.982744100969284773e-01
-1.528113281819969416e-01
-1.109517056029289961e-01
4.963348188903182745e-01
-6.358069733250886202e-01
1.089131474029272795e+00
4.361213617958128452e-01
3.961937217973172665e-01
-3.514835368841886520e-01
-8.905590302310883999e-02
-2.803221784997731447e-01
-1.943489536643028259e-01
6.163873826153576374e-02
-8.969989721663296223e-02
3.366242588963359594e-01
1.305461169686168432e-01
-1.734191423747688532e-01
4.135292116552591324e-02
7.742183133959770203e-01
2.277892401907593012e-01
1.015663782600313425e-01
-1.879090117290616035e-01
1.717347809812054038e+00
2.493106923066079617e-02
-2.294466372113674879e-01
-6.886144971940666437e-01
-1.437954094726592302e-01
-1.016137897968292236e-01
5.021307666320353746e-01
-6.290450342930853367e-01
1.098469389835372567e+00
4.448152834083884954e-01
4.216314924415200949e-01
-3.447215978521853685e-01
-8.583593205548822880e-02
-2.774242046289145947e-01
-1.888750030193477869e-01
6.453671213239431381e-02
-8.841190882958471775e-02
3.356582676060497761e-01
1.311901111621409655e-01
-1.718091568909585476e-01
5.423280503600835800e-02
7.722863308154046535e-01
2.239252750296145678e-01
9.673642180860042572e-02
-1.940269565675407648e-01
1.086233500158414245e+00
1.366117084398865700e-02
-2.391065501142293215e-01
-6.992404013872146606e-01
-1.550653078593313694e-01
-1.077317346353083849e-01
4.902168740518391132e-01
-6.319430081639438868e-01
1.091385453706607223e+00
4.399853269569575787e-01
4.219534895382821560e-01
-3.460095862392336130e-01
-8.841190882958471775e-02
-2.790341901127249002e-01
-1.872650175355374813e-01
6.550270342268049717e-02
-8.293795818462967873e-02
3.382342443801462650e-01
1.344100821297615767e-01
-1.634372323751449585e-01
6.550270342268049717e-02
7.787262727506458759e-01
2.300432198680937290e-01
1.015663782600313425e-01
-1.853330349549651146e-01
6.206256982404738665e-01
2.106710406951606274e-02
-2.326666081789880991e-01
-6.918344681616872549e-01
-1.483033688273280859e-01
-1.064437462482601404e-01
4.931148479226976633e-01
-6.287230371963232756e-01
1.091063456609845161e+00
4.393413327634334564e-01
4.245294663123786449e-01
-3.521275310777127743e-01
-9.034389141015708447e-02
-2.848301378544420004e-01
-1.862990262452512980e-01
5.874076439067721367e-02
-9.259787108749151230e-02
3.321162995416671038e-01
1.311901111621409655e-01
-1.682671888265758753e-01
6.163873826153576374e-02
7.706763453315943480e-01
2.239252750296145678e-01
9.287245664745569229e-02
-1.946709507610648870e-01
3.800938669592142105e-01
1.655914471484720707e-02
-2.368525704368948936e-01
-6.396709384862333536e-01
-1.557093020528554916e-01
-1.077317346353083849e-01
4.940808392129838467e-01
-6.296890284866094589e-01
1.093639433383941650e+00
4.461032717954367399e-01
4.319353995379060507e-01
-3.463315833359956741e-01
-8.486994076520204544e-02
-2.748482278548181057e-01
-1.721311539877206087e-01
6.711268890649080276e-02
-8.261596108786761761e-02
3.385562414769083261e-01
1.482559572905302048e-01
-1.592512701172381639e-01
7.162064826115965843e-02
7.771162872668355703e-01
2.213492982555180788e-01
9.705841890536248684e-02
-1.885530059225857258e-01
2.857487176079303026e-01
1.752513600513339043e-02
-2.378185617271810770e-01
-4.426087152678519487e-01
-1.544213136658072472e-01
-1.109517056029289961e-01
4.886068885680288076e-01
-6.502968426793813705e-01
1.087199491448700428e+00
4.354773676022887230e-01
4.238854721188545227e-01
-3.524495281744748354e-01
-9.130988270044326782e-02
-2.845081407576799393e-01
-1.759951191488653421e-01
5.970675568096339703e-02
-9.130988270044326782e-02
3.060345347039401531e-01
1.476119630970060825e-01
-1.647252207621932030e-01
6.485870922915637493e-02
7.732523221056908369e-01
2.068594289012253284e-01
9.383844793774187565e-02
-1.869430204387754202e-01
2.471090659964829683e-01
2.428707503713667393e-02
-2.323446110822260380e-01
-2.156007620505988598e-01
-1.463713862467557192e-01
-1.025797810871154070e-01
4.969788130838423967e-01
-6.808865668717771769e-01
1.095893413061276078e+00
4.428833008278161287e-01
4.300034169573336840e-01
-3.369936675298959017e-01
-8.390394947491586208e-02
-2.822541610803455114e-01
-1.740631365682929754e-01
6.357072084210813046e-02
-8.873390592634677887e-02
1.624238295480608940e-01
1.537299079354852438e-01
-1.650472178589552641e-01
6.421471503563225269e-02
7.693883569445461035e-01
1.943015421275049448e-01
9.126247116364538670e-02
-1.940269565675407648e-01
2.265012518037110567e-01
1.688114181160926819e-02
-2.391065501142293215e-01
-1.038677694741636515e-01
-1.534553223755210638e-01
-1.090197230223566294e-01
4.895728798583149910e-01
-7.272541488055139780e-01
1.090097465319558978e+00
4.390193356666713953e-01
4.264614488929510117e-01
-3.170298475306481123e-01
-8.325995528139173985e-02
-2.864401233382523060e-01
-1.718091568909585476e-01
6.324872374534606934e-02
-8.551393495872616768e-02
-2.465648367069661617e-02
1.582378672901540995e-01
-1.586072759237140417e-01
6.936666858382523060e-02
7.732523221056908369e-01
2.007414840627461672e-01
9.705841890536248684e-02
-1.875870146322995424e-01
2.300432198680937290e-01
2.106710406951606274e-02
-2.313786197919398546e-01
-4.365431237965822220e-02
-1.470153804402798414e-01
-1.029017781838774681e-01
4.908608682453632355e-01
-7.407780268695205450e-01
1.095893413061276078e+00
4.390193356666713953e-01
4.274274401832371950e-01
-2.996420043054968119e-01
-7.005807431414723396e-02
-2.883721059188246727e-01
-1.747071307618170977e-01
5.874076439067721367e-02
-9.227587399072945118e-02
-1.499133543111383915e-01
1.534079108387231827e-01
-1.647252207621932030e-01
6.485870922915637493e-02
7.645584004931151867e-01
1.914035682566463947e-01
9.448244213126599789e-02
-1.901629914063960314e-01
2.223152895458042622e-01
1.688114181160926819e-02
-2.345985907595604658e-01
-2.401248947717249393e-02
-1.512013426981866360e-01
-1.045117636676877737e-01
4.869969030842185020e-01
-7.488279542885720730e-01
1.096215410158038139e+00
4.464252688921988010e-01
4.364433588925749063e-01
-2.816101668868213892e-01
-4.107833560556173325e-02
-2.790341901127249002e-01
-1.669792004395276308e-01
6.807868019677698612e-02
-8.647992624901235104e-02
-1.920949739869683981e-01
1.637118179351091385e-01
-1.586072759237140417e-01
7.258663955144584179e-02
7.681003685574978590e-01
1.978435101918876171e-01
9.512643632479012012e-02
-1.869430204387754202e-01
2.236032779328525066e-01
1.333917374722659588e-02
-2.349205878563225269e-01
-1.821654173545539379e-02
-1.521673339884728193e-01
-1.048337607644498348e-01
4.786249785684049129e-01
-7.565558846108615398e-01
1.087521488545462489e+00
4.390193356666713953e-01
4.341893792152404785e-01
-2.845081407576799393e-01
-3.946835012175142765e-02
-2.861181262414902449e-01
-1.737411394715309143e-01
5.745277600362896919e-02
-9.549584495835006237e-02
-2.188207330182194710e-01
1.569498789031058550e-01
-1.615052497945725918e-01
6.646869471296668053e-02
7.648803975898772478e-01
1.968775189016014338e-01
9.673642180860042572e-02
-1.850110378582030535e-01
2.454990805126726627e-01
1.076319697313010693e-02
-2.310566226951777935e-01
-7.590637542307376862e-03
-1.476593746338039637e-01
-9.034389141015708447e-02
4.844209263101220131e-01
-7.526919194497168064e-01
1.098147392738610506e+00
4.473912601824849844e-01
4.409513182472437620e-01
-2.767802104353904724e-01
-3.174041979946196079e-02
-2.828981552738696337e-01
-1.701991714071482420e-01
4.682687181048095226e-02
-9.130988270044326782e-02
-2.284806459210813046e-01
1.572718759998679161e-01
-1.595732672140002251e-01
6.389271793887019157e-02
7.594064469449222088e-01
1.897935827728360891e-01
9.126247116364538670e-02
-1.927389681804925203e-01
5.169426330830901861e-01
-8.286985103040933609e-04
-2.391065501142293215e-01
-1.628455915488302708e-02
-1.524893310852348804e-01
-8.486994076520204544e-02
4.770149930845946074e-01
-7.594538584817200899e-01
1.089453471126034856e+00
4.457812746986746788e-01
4.383753414731472731e-01
-2.806441755965352058e-01
-3.206241689622402191e-02
-2.861181262414902449e-01
-1.711651626974344254e-01
2.589706052094697952e-02
-9.098788560368120670e-02
-2.294466372113674879e-01
1.608138440642505884e-01
-1.286615459248423576e-01
6.968866568058729172e-02
7.652023946866393089e-01
1.975215130951255560e-01
8.450053213164210320e-02
-1.859770291484892368e-01
1.103299346286803484e+00
1.747278263792395592e-03
-2.323446110822260380e-01
-1.145460270345211029e-02
-1.598952643107622862e-01
-7.810800173319876194e-02
4.818449495360255241e-01
-7.575218759011477232e-01
1.092673442093655467e+00
4.541531992144882679e-01
4.383753414731472731e-01
-2.796781843062490225e-01
-3.431639657355844975e-02
-2.919140739832073450e-01
-1.798590843100100756e-01
6.255237618461251259e-03
-9.903781302273273468e-02
-2.355645820498466492e-01
1.534079108387231827e-01
-1.041897665709257126e-01
6.324872374534606934e-02
7.603724382352083921e-01
1.904375769663602114e-01
2.750704600475728512e-02
-1.937049594707787037e-01
1.549265325302258134e+00
-3.082678187638521194e-03
-2.374965646304190159e-01
-1.370858238078653812e-02
-1.737411394715309143e-01
-7.553202495910227299e-02
4.805569611489772797e-01
-7.546239020302891731e-01
1.102977349190041423e+00
4.602711440529674292e-01
4.438492921181023121e-01
-2.751702249515801668e-01
-2.497848076745867729e-02
-2.806441755965352058e-01
-1.763171162456274033e-01
7.865223102271556854e-03
-9.163187979720532894e-02
-2.310566226951777935e-01
1.585598643869161606e-01
-7.907399302348494530e-02
7.129865116439759731e-02
7.658463888801634312e-01
1.965555218048393726e-01
-2.401248947717249393e-02
-1.901629914063960314e-01
1.775951281422749162e+00
-1.847043167799711227e-04
-2.339545965660363436e-01
-1.564056496135890484e-02
-1.846890407614409924e-01
-7.875199592672288418e-02
4.737950221169739962e-01
-7.629958265461027622e-01
1.108773296931758523e+00
4.547971934080123901e-01
4.361213617958128452e-01
-2.822541610803455114e-01
-3.045243141241371632e-02
-2.941680536605417728e-01
-1.869430204387754202e-01
4.592898767441511154e-04
-9.646183624863624573e-02
-2.339545965660363436e-01
1.572718759998679161e-01
-7.231205399148166180e-02
6.421471503563225269e-02
7.616604266222566366e-01
1.984875043854117393e-01
-5.138224270194768906e-02
-1.891970001161098480e-01
1.872228413354605436e+00
3.679260844364762306e-03
-2.300906314048916101e-01
2.391272457316517830e-03
-1.808250756002962589e-01
-7.263405108824372292e-02
4.828109408263117075e-01
-7.536579107400029898e-01
1.121331183705478907e+00
4.618811295367777348e-01
4.444932863116264343e-01
-2.761362162418663502e-01
-2.723246044479310513e-02
-3.308757226914167404e-01
-1.885530059225857258e-01
4.592898767441511154e-04
-9.324186528101563454e-02
-2.101268114056438208e-01
1.582378672901540995e-01
-7.134606270119547844e-02
6.421471503563225269e-02
7.597284440416842699e-01
1.975215130951255560e-01
-7.166805979795753956e-02
-1.943489536643028259e-01
1.902818137547001243e+00
-5.014660768210887909e-03
-2.391065501142293215e-01
5.611243424937129021e-03
-1.898409943096339703e-01
-7.778600463643670082e-02
4.770149930845946074e-01
-7.658938004169613123e-01
1.120043195318430662e+00
4.564071788918226957e-01
4.377313472796231508e-01
-2.822541610803455114e-01
-3.399439947679638863e-02
-3.981731159146875143e-01
-1.891970001161098480e-01
-1.847043167799711227e-04
-9.259787108749151230e-02
-8.808991173282265663e-02
1.601698498707264662e-01
-6.361813237890601158e-02
7.097665406763553619e-02
7.681003685574978590e-01
2.097574027720838785e-01
-6.812609173357486725e-02
-1.866210233420133591e-01
1.926967919804155827e+00
5.933240521699190140e-03
-2.191427301149815321e-01
1.527115632779896259e-02
-1.882310088258236647e-01
-7.392203947529196739e-02
4.795909698586910963e-01
-7.636398207396268845e-01
1.123263166286051273e+00
4.599491469562053680e-01
4.386973385699093342e-01
-2.838641465641558170e-01
-3.141842270269989967e-02
-4.432527094613760710e-01
-1.930609652772545815e-01
-3.726672381162643433e-03
-9.839381882920861244e-02
7.355263084173202515e-02
1.537299079354852438e-01
-6.877008592709898949e-02
6.453671213239431381e-02
7.632704121060669422e-01
2.049274463206529617e-01
-7.585402205586433411e-02
-1.898409943096339703e-01
1.927289916900917888e+00
-2.116686897352337837e-03
-1.966029333416372538e-01
1.494915923103690147e-02
-1.904849885031580925e-01
-7.553202495910227299e-02
4.544751963112503290e-01
-7.671817888040095568e-01
1.126483137253671885e+00
4.622031266335397959e-01
4.499672369565814734e-01
-2.812881697900593281e-01
-2.658846625126898289e-02
-4.561325933318585157e-01
-1.850110378582030535e-01
3.357263747602701187e-03
-9.227587399072945118e-02
1.823876495473086834e-01
1.627458266448229551e-01
